EC-Lab ASCII FILE
Nb header lines : 53                          

Cyclic Voltammetry

Run on channel : 1 (SN 0696)
User : 
Electrode connection : standard
Ewe ctrl range : min = -10.00 V, max = 10.00 V
Ewe,I filtering : 50 kHz
Channel : Grounded
Acquisition started on : 05/17/2017 12:53:20
Saved on :
	File : 100 uM RS 10mM PB_07_CV_C01.mpr
	Directory : \\userfs\st659\w2k\EC-Lab\Data\ITO Characterisation 17-5-17\
	Host : 144.32.136.43
Device : SP-300 (SN 0182)
Address : USB
EC-Lab for windows v10.44 (software)
Internet server v10.44 (firmware)
Command interpretor v10.44 (firmware)
Electrode material : 
Initial state : 
Electrolyte : 
Comments : 
Cable : standard
Electrode surface area : 0.001 cm²
Characteristic mass : 0.001 g
Equivalent Weight : 0.000 g/eq.
Density : 0.000 g/cm3
Ei (V)              0.000               
vs.                 Eoc                 
dE/dt               2500.000            
dE/dt unit          mV/s                
E1 (V)              0.100               
vs.                 Ref                 
Step percent        50                  
N                   10                  
E range min (V)     -10.000             
E range max (V)     10.000              
I Range             Auto                
I Range min         Unset               
I Range max         Unset               
I Range init        Unset               
Bandwidth           8                   
E2 (V)              -0.600              
vs.                 Ref                 
nc cycles           2                   
Reverse Scan        1                   
Ef (V)              0.000               
vs.                 Eoc                 

mode	ox/red	error	control changes	counter inc.	time/s	control/V	Ewe/V	<I>/mA	cycle number	(Q-Qo)/C	P/W
2	1	0	1	1	4.259779892388906E+002	-5.9949374E-001	-5.9973747E-001	-1.809001527726650E-002	2.000000000000000E+000	-3.1231673E-006	1.0849260E-005
2	1	0	0	1	4.259790892388628E+002	-5.9682816E-001	-5.9708607E-001	-1.719798627325669E-002	2.000000000000000E+000	-3.1421605E-006	1.0268678E-005
2	1	0	0	1	4.259810892388123E+002	-5.9183007E-001	-5.9209067E-001	-1.575743961843216E-002	2.000000000000000E+000	-3.1749648E-006	9.3298331E-006
2	1	0	0	1	4.259830892387618E+002	-5.8683205E-001	-5.8710545E-001	-1.454441881812971E-002	2.000000000000000E+000	-3.2051398E-006	8.5391075E-006
2	1	0	0	1	4.259850892387112E+002	-5.8183396E-001	-5.8207792E-001	-1.348279288423429E-002	2.000000000000000E+000	-3.2330561E-006	7.8480361E-006
2	1	0	0	1	4.259870892386607E+002	-5.7683587E-001	-5.7709521E-001	-1.255620329094301E-002	2.000000000000000E+000	-3.2589994E-006	7.2461248E-006
2	1	0	0	1	4.259890892386102E+002	-5.7183778E-001	-5.7208943E-001	-1.172708345762255E-002	2.000000000000000E+000	-3.2831967E-006	6.7089404E-006
2	1	0	0	1	4.259910892385597E+002	-5.6683969E-001	-5.6710970E-001	-1.097951873109396E-002	2.000000000000000E+000	-3.3058259E-006	6.2265917E-006
2	1	0	0	1	4.259930892385091E+002	-5.6184155E-001	-5.6211090E-001	-1.029780965897466E-002	2.000000000000000E+000	-3.3270326E-006	5.7885109E-006
2	1	0	0	1	4.259950892384586E+002	-5.5684346E-001	-5.5711794E-001	-9.665003489923607E-003	2.000000000000000E+000	-3.3469296E-006	5.3845470E-006
2	1	0	0	1	4.259970892384081E+002	-5.5184537E-001	-5.5209708E-001	-9.074427532141244E-003	2.000000000000000E+000	-3.3656099E-006	5.0099648E-006
2	1	0	0	1	4.259990892383576E+002	-5.4684728E-001	-5.4709822E-001	-8.531441527742989E-003	2.000000000000000E+000	-3.3831600E-006	4.6675364E-006
2	1	0	0	1	4.260010892383070E+002	-5.4184914E-001	-5.4209501E-001	-8.021679865123560E-003	2.000000000000000E+000	-3.3996619E-006	4.3485124E-006
2	1	0	0	1	4.260030892382565E+002	-5.3685111E-001	-5.3708214E-001	-7.544336389299930E-003	2.000000000000000E+000	-3.4151785E-006	4.0519285E-006
2	1	0	0	1	4.260050892382060E+002	-5.3185302E-001	-5.3210288E-001	-7.099942470833606E-003	2.000000000000000E+000	-3.4297764E-006	3.7778998E-006
2	1	0	0	1	4.260070892381555E+002	-5.2685487E-001	-5.2710629E-001	-6.669257115390764E-003	2.000000000000000E+000	-3.4435031E-006	3.5154073E-006
2	1	0	0	1	4.260090892381049E+002	-5.2185678E-001	-5.2210307E-001	-6.270037877988598E-003	2.000000000000000E+000	-3.4564009E-006	3.2736061E-006
2	1	0	0	1	4.260110892380544E+002	-5.1685870E-001	-5.1710486E-001	-5.884591142300138E-003	2.000000000000000E+000	-3.4685163E-006	3.0429508E-006
2	1	0	0	1	4.260130892380039E+002	-5.1186061E-001	-5.1211894E-001	-5.520290635003117E-003	2.000000000000000E+000	-3.4798841E-006	2.8270454E-006
2	1	0	0	1	4.260150892379534E+002	-5.0686252E-001	-5.0711906E-001	-5.168937374138399E-003	2.000000000000000E+000	-3.4905381E-006	2.6212667E-006
2	1	0	0	1	4.260170892379028E+002	-5.0186449E-001	-5.0212449E-001	-4.838114995436633E-003	2.000000000000000E+000	-3.5005110E-006	2.4293361E-006
2	1	0	0	1	4.260190892378523E+002	-4.9686635E-001	-4.9711484E-001	-4.516086707755884E-003	2.000000000000000E+000	-3.5098335E-006	2.2450138E-006
2	1	0	0	1	4.260210892378018E+002	-4.9186826E-001	-4.9211156E-001	-4.211496665245951E-003	2.000000000000000E+000	-3.5185303E-006	2.0725263E-006
2	1	0	0	1	4.260230892377513E+002	-4.8687017E-001	-4.8712224E-001	-3.919259722654993E-003	2.000000000000000E+000	-3.5266314E-006	1.9091585E-006
2	1	0	0	1	4.260250892377007E+002	-4.8187205E-001	-4.8211816E-001	-3.636028064445580E-003	2.000000000000000E+000	-3.5341577E-006	1.7529951E-006
2	1	0	0	1	4.260270892376502E+002	-4.7687396E-001	-4.7714132E-001	-3.364789319827343E-003	2.000000000000000E+000	-3.5411319E-006	1.6054801E-006
2	1	0	0	1	4.260290892375997E+002	-4.7187588E-001	-4.7213385E-001	-3.102238121856414E-003	2.000000000000000E+000	-3.5475721E-006	1.4646716E-006
2	1	0	0	1	4.260310892375492E+002	-4.6687779E-001	-4.6712995E-001	-2.846488309488544E-003	2.000000000000000E+000	-3.5534952E-006	1.3296799E-006
2	1	0	0	1	4.260330892374986E+002	-4.6187967E-001	-4.6211353E-001	-2.601460290811198E-003	2.000000000000000E+000	-3.5589173E-006	1.2021700E-006
2	1	0	0	1	4.260350892374481E+002	-4.5688158E-001	-4.5712039E-001	-2.366899620735954E-003	2.000000000000000E+000	-3.5638616E-006	1.0819581E-006
2	1	0	0	1	4.260370892373976E+002	-4.5188349E-001	-4.5210588E-001	-2.138123272869864E-003	2.000000000000000E+000	-3.5683427E-006	9.6665815E-007
2	1	0	0	1	4.260390892373471E+002	-4.4688541E-001	-4.4712314E-001	-1.920937260138086E-003	2.000000000000000E+000	-3.5723804E-006	8.5889548E-007
2	1	0	0	1	4.260410892372965E+002	-4.4188732E-001	-4.4214064E-001	-1.708794285327199E-003	2.000000000000000E+000	-3.5759888E-006	7.5552742E-007
2	1	0	0	1	4.260430892372460E+002	-4.3688920E-001	-4.3713570E-001	-1.500528935973001E-003	2.000000000000000E+000	-3.5791772E-006	6.5593474E-007
2	1	0	0	1	4.260450892371955E+002	-4.3181705E-001	-4.3205422E-001	-1.286203444932556E-003	2.000000000000000E+000	-3.5819455E-006	5.5570962E-007
2	1	0	0	1	4.260470892371450E+002	-4.2672646E-001	-4.2697546E-001	-1.080946858893286E-003	2.000000000000000E+000	-3.5842888E-006	4.6153778E-007
2	1	0	0	1	4.260490892370944E+002	-4.2172834E-001	-4.2200312E-001	-9.023882247952801E-004	2.000000000000000E+000	-3.5862547E-006	3.8081063E-007
2	1	0	0	1	4.260510892370439E+002	-4.1673025E-001	-4.1699517E-001	-7.232575606192573E-004	2.000000000000000E+000	-3.5878618E-006	3.0159489E-007
2	1	0	0	1	4.260530892369934E+002	-4.1173217E-001	-4.1198218E-001	-5.425376391169981E-004	2.000000000000000E+000	-3.5891098E-006	2.2351584E-007
2	1	0	0	1	4.260550892369429E+002	-4.0673405E-001	-4.0697652E-001	-3.751031828061143E-004	2.000000000000000E+000	-3.5900100E-006	1.5265819E-007
2	1	0	0	1	4.260570892368924E+002	-4.0173593E-001	-4.0200889E-001	-2.112072751651161E-004	2.000000000000000E+000	-3.5905803E-006	8.4907199E-008
2	1	0	0	1	4.260590892368418E+002	-3.9673787E-001	-3.9701408E-001	-4.754443313191744E-005	2.000000000000000E+000	-3.5908236E-006	1.8875809E-008
2	1	0	0	1	4.260610892367913E+002	-3.9173976E-001	-3.9198154E-001	1.117958551372705E-004	2.000000000000000E+000	-3.5907442E-006	4.3821913E-008
2	1	0	0	1	4.260630892367408E+002	-3.8674167E-001	-3.8700861E-001	2.663050942241316E-004	2.000000000000000E+000	-3.5903499E-006	1.0306236E-007
2	1	0	0	1	4.260650892366903E+002	-3.8174358E-001	-3.8199979E-001	4.202845942258056E-004	2.000000000000000E+000	-3.5896480E-006	1.6054862E-007
2	1	0	0	1	4.260670892366397E+002	-3.7674549E-001	-3.7698552E-001	5.648138635605295E-004	2.000000000000000E+000	-3.5886476E-006	2.1292665E-007
2	1	0	0	1	4.260690892365892E+002	-3.7174737E-001	-3.7200361E-001	7.109534876311341E-004	2.000000000000000E+000	-3.5873579E-006	2.6447728E-007
2	1	0	0	1	4.260710892365387E+002	-3.6674932E-001	-3.6697006E-001	8.531308564998751E-004	2.000000000000000E+000	-3.5857797E-006	3.1307349E-007
2	1	0	0	1	4.260730892364882E+002	-3.6175123E-001	-3.6199769E-001	9.886335835113235E-004	2.000000000000000E+000	-3.5839250E-006	3.5788307E-007
2	1	0	0	1	4.260750892364376E+002	-3.5675311E-001	-3.5701734E-001	1.120470721414475E-003	2.000000000000000E+000	-3.5818032E-006	4.0002749E-007
2	1	0	0	1	4.260770892363871E+002	-3.5175502E-001	-3.5202274E-001	1.254659859594337E-003	2.000000000000000E+000	-3.5794144E-006	4.4166879E-007
2	1	0	0	1	4.260790892363366E+002	-3.4675691E-001	-3.4701163E-001	1.388022590516711E-003	2.000000000000000E+000	-3.5767575E-006	4.8165998E-007
2	1	0	0	1	4.260810892362861E+002	-3.4175882E-001	-3.4202656E-001	1.519393578165461E-003	2.000000000000000E+000	-3.5738369E-006	5.1967294E-007
2	1	0	0	1	4.260830892362355E+002	-3.3676073E-001	-3.3697963E-001	1.654176103304258E-003	2.000000000000000E+000	-3.5706501E-006	5.5742368E-007
2	1	0	0	1	4.260850892361850E+002	-3.3176264E-001	-3.3198693E-001	1.781457508387679E-003	2.000000000000000E+000	-3.5672019E-006	5.9142064E-007
2	1	0	0	1	4.260870892361345E+002	-3.2676452E-001	-3.2697281E-001	1.907552490315037E-003	2.000000000000000E+000	-3.5635005E-006	6.2371782E-007
2	1	0	0	1	4.260890892360840E+002	-3.2176644E-001	-3.2197654E-001	2.029791010020041E-003	2.000000000000000E+000	-3.5595506E-006	6.5354510E-007
2	1	0	0	1	4.260910892360334E+002	-3.1676835E-001	-3.1699449E-001	2.149211307293321E-003	2.000000000000000E+000	-3.5553599E-006	6.8128816E-007
2	1	0	0	1	4.260930892359829E+002	-3.1177026E-001	-3.1201074E-001	2.270772060026301E-003	2.000000000000000E+000	-3.5509267E-006	7.0850524E-007
2	1	0	0	1	4.260950892359324E+002	-3.0677217E-001	-3.0699110E-001	2.394260758162799E-003	2.000000000000000E+000	-3.5462481E-006	7.3501673E-007
2	1	0	0	1	4.260970892358819E+002	-3.0177405E-001	-3.0199778E-001	2.513384570142496E-003	2.000000000000000E+000	-3.5413289E-006	7.5903654E-007
2	1	0	0	1	4.260990892358313E+002	-2.9677597E-001	-2.9698732E-001	2.636407155427553E-003	2.000000000000000E+000	-3.5361670E-006	7.8297950E-007
2	1	0	0	1	4.261010892357808E+002	-2.9177788E-001	-2.9197067E-001	2.757374240243544E-003	2.000000000000000E+000	-3.5307601E-006	8.0507243E-007
2	1	0	0	1	4.261030892357303E+002	-2.8677976E-001	-2.8698158E-001	2.876222880836898E-003	2.000000000000000E+000	-3.5251142E-006	8.2542300E-007
2	1	0	0	1	4.261050892356798E+002	-2.8178167E-001	-2.8198001E-001	2.995389014914605E-003	2.000000000000000E+000	-3.5192306E-006	8.4463983E-007
2	1	0	0	1	4.261070892356292E+002	-2.7678359E-001	-2.7700448E-001	3.113241531435856E-003	2.000000000000000E+000	-3.5131090E-006	8.6238185E-007
2	1	0	0	1	4.261090892355787E+002	-2.7178547E-001	-2.7200106E-001	3.233954668050695E-003	2.000000000000000E+000	-3.5067496E-006	8.7963912E-007
2	1	0	0	1	4.261110892355282E+002	-2.6678741E-001	-2.6700687E-001	3.354858172972146E-003	2.000000000000000E+000	-3.5001483E-006	8.9577020E-007
2	1	0	0	1	4.261130892354777E+002	-2.6178929E-001	-2.6200017E-001	3.475295819549095E-003	2.000000000000000E+000	-3.4933068E-006	9.1052812E-007
2	1	0	0	1	4.261150892354271E+002	-2.5679120E-001	-2.5701642E-001	3.596729068602957E-003	2.000000000000000E+000	-3.4862228E-006	9.2441843E-007
2	1	0	0	1	4.261170892353766E+002	-2.5179312E-001	-2.5201905E-001	3.719709441156731E-003	2.000000000000000E+000	-3.4788941E-006	9.3743762E-007
2	1	0	0	1	4.261190892353261E+002	-2.4679501E-001	-2.4702023E-001	3.843007494348676E-003	2.000000000000000E+000	-3.4713200E-006	9.4930061E-007
2	1	0	0	1	4.261210892352756E+002	-2.4179693E-001	-2.4201399E-001	3.970881883712238E-003	2.000000000000000E+000	-3.4634943E-006	9.6100894E-007
2	1	0	0	1	4.261230892352251E+002	-2.3679882E-001	-2.3704292E-001	4.094752040247033E-003	2.000000000000000E+000	-3.4554159E-006	9.7063196E-007
2	1	0	0	1	4.261250892351745E+002	-2.3180072E-001	-2.3203649E-001	4.222838702288659E-003	2.000000000000000E+000	-3.4470856E-006	9.7985264E-007
2	1	0	0	1	4.261270892351240E+002	-2.2680265E-001	-2.2705694E-001	4.345352977149247E-003	2.000000000000000E+000	-3.4385046E-006	9.8664248E-007
2	1	0	0	1	4.261290892350735E+002	-2.2180454E-001	-2.2204624E-001	4.472401481608468E-003	2.000000000000000E+000	-3.4296756E-006	9.9307999E-007
2	1	0	0	1	4.261310892350230E+002	-2.1680644E-001	-2.1705060E-001	4.598326756978272E-003	2.000000000000000E+000	-3.4205914E-006	9.9806959E-007
2	1	0	0	1	4.261330892349724E+002	-2.1180835E-001	-2.1201955E-001	4.727812271236573E-003	2.000000000000000E+000	-3.4112536E-006	1.0023887E-006
2	1	0	0	1	4.261350892349219E+002	-2.0681025E-001	-2.0701243E-001	4.850961515229679E-003	2.000000000000000E+000	-3.4016621E-006	1.0042094E-006
2	1	0	0	1	4.261370892348714E+002	-2.0181218E-001	-2.0201045E-001	4.972437215555028E-003	2.000000000000000E+000	-3.3918266E-006	1.0044843E-006
2	1	0	0	1	4.261390892348209E+002	-1.9681408E-001	-1.9700103E-001	5.086899858320559E-003	2.000000000000000E+000	-3.3817548E-006	1.0021245E-006
2	1	0	0	1	4.261410892347703E+002	-1.9181599E-001	-1.9202867E-001	5.195111007398941E-003	2.000000000000000E+000	-3.3714623E-006	9.9761030E-007
2	1	0	0	1	4.261430892347198E+002	-1.8681788E-001	-1.8704958E-001	5.303703963767864E-003	2.000000000000000E+000	-3.3609515E-006	9.9205556E-007
2	1	0	0	1	4.261450892346693E+002	-1.8181980E-001	-1.8203463E-001	5.401257977205712E-003	2.000000000000000E+000	-3.3502365E-006	9.8321595E-007
2	1	0	0	1	4.261470892346188E+002	-1.7682169E-001	-1.7704195E-001	5.502964240602329E-003	2.000000000000000E+000	-3.3393230E-006	9.7425550E-007
2	1	0	0	1	4.261490892345682E+002	-1.7182361E-001	-1.7205159E-001	5.593631249919587E-003	2.000000000000000E+000	-3.3282172E-006	9.6239319E-007
2	1	0	0	1	4.261510892345177E+002	-1.6682552E-001	-1.6704832E-001	5.680887364885895E-003	2.000000000000000E+000	-3.3169342E-006	9.4898269E-007
2	1	0	0	1	4.261530892344672E+002	-1.6182742E-001	-1.6204971E-001	5.764667809873808E-003	2.000000000000000E+000	-3.3054798E-006	9.3416276E-007
2	1	0	0	1	4.261550892344167E+002	-1.5682931E-001	-1.5703563E-001	5.843405936704793E-003	2.000000000000000E+000	-3.2938640E-006	9.1762297E-007
2	1	0	0	1	4.261570892343661E+002	-1.5183121E-001	-1.5204231E-001	5.918838296060519E-003	2.000000000000000E+000	-3.2820944E-006	8.9991386E-007
2	1	0	0	1	4.261590892343156E+002	-1.4683314E-001	-1.4706659E-001	5.990498946529352E-003	2.000000000000000E+000	-3.2701762E-006	8.8100228E-007
2	1	0	0	1	4.261610892342651E+002	-1.4183505E-001	-1.4205103E-001	6.057625521558897E-003	2.000000000000000E+000	-3.2581204E-006	8.6049192E-007
2	1	0	0	1	4.261630892342146E+002	-1.3683695E-001	-1.3705620E-001	6.125302579776983E-003	2.000000000000000E+000	-3.2459309E-006	8.3951073E-007
2	1	0	0	1	4.261650892341640E+002	-1.3183886E-001	-1.3205123E-001	6.188826847796397E-003	2.000000000000000E+000	-3.2336102E-006	8.1724221E-007
2	1	0	0	1	4.261670892341135E+002	-1.2684077E-001	-1.2705347E-001	6.249533296593460E-003	2.000000000000000E+000	-3.2211674E-006	7.9402491E-007
2	1	0	0	1	4.261690892340630E+002	-1.2184266E-001	-1.2205379E-001	6.303946271550037E-003	2.000000000000000E+000	-3.2086080E-006	7.6942058E-007
2	1	0	0	1	4.261710892340125E+002	-1.1684456E-001	-1.1703122E-001	6.356621310260366E-003	2.000000000000000E+000	-3.1959421E-006	7.4392318E-007
2	1	0	0	1	4.261730892339619E+002	-1.1184648E-001	-1.1202900E-001	6.410356607981772E-003	2.000000000000000E+000	-3.1831701E-006	7.1814583E-007
2	1	0	0	1	4.261750892339114E+002	-1.0684837E-001	-1.0704289E-001	6.447818267992650E-003	2.000000000000000E+000	-3.1703075E-006	6.9019308E-007
2	1	0	0	1	4.261770892338609E+002	-1.0185029E-001	-1.0204725E-001	6.491658059429847E-003	2.000000000000000E+000	-3.1573638E-006	6.6245588E-007
2	1	0	0	1	4.261790892338104E+002	-9.6852191E-002	-9.7043119E-002	6.533824306845654E-003	2.000000000000000E+000	-3.1443351E-006	6.3406270E-007
2	1	0	0	1	4.261810892337598E+002	-9.1854088E-002	-9.2043653E-002	6.578617412742474E-003	2.000000000000000E+000	-3.1312179E-006	6.0551997E-007
2	1	0	0	1	4.261830892337093E+002	-8.6856000E-002	-8.7059461E-002	6.611269732073016E-003	2.000000000000000E+000	-3.1180255E-006	5.7557355E-007
2	1	0	0	1	4.261850892336588E+002	-8.1857905E-002	-8.2068689E-002	6.643031634767892E-003	2.000000000000000E+000	-3.1047668E-006	5.4518489E-007
2	1	0	0	1	4.261870892336083E+002	-7.6859809E-002	-7.7083431E-002	6.673268139921765E-003	2.000000000000000E+000	-3.0914473E-006	5.1439838E-007
2	1	0	0	1	4.261890892335578E+002	-7.1861714E-002	-7.2075494E-002	6.705941755677070E-003	2.000000000000000E+000	-3.0780657E-006	4.8333408E-007
2	1	0	0	1	4.261910892335072E+002	-6.6863626E-002	-6.7074329E-002	6.729757961895518E-003	2.000000000000000E+000	-3.0646277E-006	4.5139399E-007
2	1	0	0	1	4.261930892334567E+002	-6.1865527E-002	-6.2092241E-002	6.750522931623801E-003	2.000000000000000E+000	-3.0511458E-006	4.1915510E-007
2	1	0	0	1	4.261950892334062E+002	-5.6867436E-002	-5.7085574E-002	6.770863936556751E-003	2.000000000000000E+000	-3.0376229E-006	3.8651865E-007
2	1	0	0	1	4.261970892333557E+002	-5.1869340E-002	-5.2095864E-002	6.795803461601392E-003	2.000000000000000E+000	-3.0240544E-006	3.5403326E-007
2	1	0	0	1	4.261990892333051E+002	-4.6871245E-002	-4.7083043E-002	6.810762816005289E-003	2.000000000000000E+000	-3.0104459E-006	3.2067143E-007
2	1	0	0	1	4.262010892332546E+002	-4.1873150E-002	-4.2087607E-002	6.820191864385872E-003	2.000000000000000E+000	-2.9968146E-006	2.8704557E-007
2	1	0	0	1	4.262030892332041E+002	-3.6875054E-002	-3.7079666E-002	6.837058130663015E-003	2.000000000000000E+000	-2.9831551E-006	2.5351582E-007
2	1	0	0	1	4.262050892331536E+002	-3.1876963E-002	-3.2084443E-002	6.850745928406669E-003	2.000000000000000E+000	-2.9694650E-006	2.1980236E-007
2	1	0	0	1	4.262070892331030E+002	-2.6878869E-002	-2.7068237E-002	6.864836738511973E-003	2.000000000000000E+000	-2.9557477E-006	1.8581903E-007
2	1	0	0	1	4.262090892330525E+002	-2.1880774E-002	-2.2077672E-002	6.880134605833324E-003	2.000000000000000E+000	-2.9420014E-006	1.5189735E-007
2	1	0	0	1	4.262110892330020E+002	-1.6882678E-002	-1.7098984E-002	6.885050856100056E-003	2.000000000000000E+000	-2.9282362E-006	1.1772737E-007
2	1	0	0	1	4.262130892329515E+002	-1.1884584E-002	-1.2106940E-002	6.892530307696793E-003	2.000000000000000E+000	-2.9144578E-006	8.3447453E-008
2	1	0	0	1	4.262150892329009E+002	-6.8864892E-003	-7.1093854E-003	6.902891964475397E-003	2.000000000000000E+000	-2.9006617E-006	4.9075318E-008
2	1	0	0	1	4.262170892328504E+002	-1.8883951E-003	-2.1217922E-003	6.907744292827065E-003	2.000000000000000E+000	-2.8868494E-006	1.4656798E-008
2	1	0	0	1	4.262190892327999E+002	3.1096980E-003	2.9192157E-003	6.922427990199743E-003	2.000000000000000E+000	-2.8730183E-006	2.0208061E-008
2	1	0	0	1	4.262210892327494E+002	8.2743932E-003	8.0903703E-003	6.956669211326191E-003	2.000000000000000E+000	-2.8591378E-006	5.6282030E-008
2	1	0	0	1	4.262230892326988E+002	1.3272485E-002	1.3111452E-002	6.955440368478269E-003	2.000000000000000E+000	-2.8452255E-006	9.1195922E-008
2	1	0	0	1	4.262250892326483E+002	1.8270576E-002	1.8100739E-002	6.950842314027914E-003	2.000000000000000E+000	-2.8313204E-006	1.2581538E-007
2	1	0	0	1	4.262270892325978E+002	2.3268668E-002	2.3086632E-002	6.941201501629440E-003	2.000000000000000E+000	-2.8174286E-006	1.6024896E-007
2	1	0	0	1	4.262290892325473E+002	2.8266761E-002	2.8078675E-002	6.933721684820026E-003	2.000000000000000E+000	-2.8035547E-006	1.9468972E-007
2	1	0	0	1	4.262310892324967E+002	3.3264853E-002	3.3069022E-002	6.937726486790398E-003	2.000000000000000E+000	-2.7896831E-006	2.2942383E-007
2	1	0	0	1	4.262330892324462E+002	3.8262945E-002	3.8104307E-002	6.934717648315818E-003	2.000000000000000E+000	-2.7758110E-006	2.6424260E-007
2	1	0	0	1	4.262350892323957E+002	4.3261040E-002	4.3076638E-002	6.925585550359575E-003	2.000000000000000E+000	-2.7619506E-006	2.9833095E-007
2	1	0	0	1	4.262370892323452E+002	4.8259128E-002	4.8125904E-002	6.922767054776284E-003	2.000000000000000E+000	-2.7481024E-006	3.3316442E-007
2	1	0	0	1	4.262390892322946E+002	5.3257223E-002	5.3110745E-002	6.914482210049755E-003	2.000000000000000E+000	-2.7342649E-006	3.6723330E-007
2	1	0	0	1	4.262410892322441E+002	5.8255311E-002	5.8108505E-002	6.913592067273076E-003	2.000000000000000E+000	-2.7204389E-006	4.0173850E-007
2	1	0	0	1	4.262430892321936E+002	6.3253410E-002	6.3090585E-002	6.904057350362189E-003	2.000000000000000E+000	-2.7066205E-006	4.3558103E-007
2	1	0	0	1	4.262450892321431E+002	6.8251498E-002	6.8107210E-002	6.897277221570316E-003	2.000000000000000E+000	-2.6928199E-006	4.6975430E-007
2	1	0	0	1	4.262470892320925E+002	7.3249593E-002	7.3111556E-002	6.891449847191547E-003	2.000000000000000E+000	-2.6790312E-006	5.0384460E-007
2	1	0	0	1	4.262490892320420E+002	7.8247681E-002	7.8098297E-002	6.884118590783646E-003	2.000000000000000E+000	-2.6652574E-006	5.3763796E-007
2	1	0	0	1	4.262510892319915E+002	8.3245769E-002	8.3100520E-002	6.865832209768996E-003	2.000000000000000E+000	-2.6515083E-006	5.7055422E-007
2	1	0	0	1	4.262530892319410E+002	8.8243864E-002	8.8063933E-002	6.857039214385935E-003	2.000000000000000E+000	-2.6377879E-006	6.0385781E-007
2	1	0	0	1	4.262550892318905E+002	9.3241967E-002	9.3065932E-002	6.848012697547479E-003	2.000000000000000E+000	-2.6240825E-006	6.3731670E-007
2	1	0	0	1	4.262568892318450E+002	9.7740263E-002	9.7585015E-002	6.840909217836644E-003	2.000000000000000E+000	-2.6117641E-006	6.6757025E-007
2	1	0	0	1	4.262577892318222E+002	9.9906117E-002	9.9753544E-002	6.816908251494169E-003	2.000000000000000E+000	-2.6056105E-006	6.8001077E-007
2	1	0	1	1	4.262579892318172E+002	1.0057253E-001	1.0037927E-001	6.847801618278027E-003	2.000000000000000E+000	-2.6042408E-006	6.8737734E-007
2	0	0	0	1	4.262581892318121E+002	9.9906117E-002	9.9768810E-002	6.630403921008110E-003	2.000000000000000E+000	-2.6029147E-006	6.6150750E-007
2	0	0	1	1	4.262592892317844E+002	9.7240433E-002	9.7113043E-002	5.661096748756075E-003	2.000000000000000E+000	-2.5966026E-006	5.4976636E-007
2	0	0	1	1	4.262612892317338E+002	9.2242345E-002	9.2117168E-002	4.187199373114306E-003	2.000000000000000E+000	-2.5869156E-006	3.8571295E-007
2	0	0	1	1	4.262632892316833E+002	8.7244250E-002	8.7088883E-002	3.043466560737028E-003	2.000000000000000E+000	-2.5798083E-006	2.6505211E-007
2	0	0	1	1	4.262652892316328E+002	8.2246155E-002	8.2121864E-002	2.132853635379843E-003	2.000000000000000E+000	-2.5747297E-006	1.7515391E-007
2	0	0	1	1	4.262672892315823E+002	7.7248059E-002	7.7131510E-002	1.382852455296619E-003	2.000000000000000E+000	-2.5712930E-006	1.0666150E-007
2	0	0	1	1	4.262692892315317E+002	7.2249979E-002	7.2114028E-002	7.607685312159959E-004	2.000000000000000E+000	-2.5692152E-006	5.4862085E-008
2	0	0	1	1	4.262712892314812E+002	6.7251883E-002	6.7122839E-002	2.382298432850565E-004	2.000000000000000E+000	-2.5682709E-006	1.5990663E-008
2	0	0	1	1	4.262732892314307E+002	6.2253788E-002	6.2144574E-002	-2.073085269284677E-004	2.000000000000000E+000	-2.5682873E-006	1.2883100E-008
2	0	0	1	1	4.262752892313802E+002	5.7255697E-002	5.7158254E-002	-5.927552578239353E-004	2.000000000000000E+000	-2.5691274E-006	3.3880855E-008
2	0	0	1	1	4.262772892313296E+002	5.2257601E-002	5.2133363E-002	-9.356759949115346E-004	2.000000000000000E+000	-2.5706929E-006	4.8779935E-008
2	0	0	1	1	4.262792892312791E+002	4.7259510E-002	4.7139410E-002	-1.231239563910295E-003	2.000000000000000E+000	-2.5728907E-006	5.8039905E-008
2	0	0	1	1	4.262812892312286E+002	4.2261418E-002	4.2104974E-002	-1.504342912489343E-003	2.000000000000000E+000	-2.5756535E-006	6.3340323E-008
2	0	0	1	1	4.262832892311781E+002	3.7263326E-002	3.7143033E-002	-1.741637029529857E-003	2.000000000000000E+000	-2.5789245E-006	6.4689679E-008
2	0	0	1	1	4.262852892311275E+002	3.2265235E-002	3.2114111E-002	-1.962976062436103E-003	2.000000000000000E+000	-2.5826519E-006	6.3039231E-008
2	0	0	1	1	4.262872892310770E+002	2.7267143E-002	2.7124820E-002	-2.160731842650421E-003	2.000000000000000E+000	-2.5867964E-006	5.8609462E-008
2	0	0	1	1	4.262892892310265E+002	2.2269052E-002	2.2126207E-002	-2.346240356473572E-003	2.000000000000000E+000	-2.5913216E-006	5.1913400E-008
2	0	0	1	1	4.262912892309760E+002	1.7270958E-002	1.7149638E-002	-2.517361648137415E-003	2.000000000000000E+000	-2.5962026E-006	4.3171841E-008
2	0	0	1	1	4.262932892309254E+002	1.2272866E-002	1.2137885E-002	-2.678990295205755E-003	2.000000000000000E+000	-2.6014152E-006	3.2517278E-008
2	0	0	1	1	4.262952892308749E+002	7.2377510E-003	7.0845853E-003	-2.838902812274884E-003	2.000000000000000E+000	-2.6069472E-006	2.0112449E-008
2	0	0	1	1	4.262972892308244E+002	2.1100796E-003	1.9526447E-003	-2.998306530874593E-003	2.000000000000000E+000	-2.6128043E-006	5.8546274E-009
2	0	0	1	1	4.262992892307739E+002	-2.8880138E-003	-3.0743734E-003	-3.135568249642043E-003	2.000000000000000E+000	-2.6189527E-006	9.6399075E-009
2	0	0	1	1	4.263012892307233E+002	-7.8861080E-003	-8.0424650E-003	-3.257764391491939E-003	2.000000000000000E+000	-2.6253583E-006	2.6200455E-008
2	0	0	1	1	4.263032892306728E+002	-1.2884202E-002	-1.3062913E-002	-3.375235499485525E-003	2.000000000000000E+000	-2.6320033E-006	4.4090406E-008
2	0	0	1	1	4.263052892306223E+002	-1.7882297E-002	-1.8050719E-002	-3.491901372955089E-003	2.000000000000000E+000	-2.6388821E-006	6.3031329E-008
2	0	0	1	1	4.263072892305718E+002	-2.2880390E-002	-2.3028985E-002	-3.603736322525544E-003	2.000000000000000E+000	-2.6459893E-006	8.2990390E-008
2	0	0	1	1	4.263092892305212E+002	-2.7878484E-002	-2.8028658E-002	-3.714384486758921E-003	2.000000000000000E+000	-2.6533182E-006	1.0410921E-007
2	0	0	1	1	4.263112892304707E+002	-3.2876581E-002	-3.3038508E-002	-3.822256931925956E-003	2.000000000000000E+000	-2.6608673E-006	1.2628166E-007
2	0	0	1	1	4.263132892304202E+002	-3.7874676E-002	-3.8026098E-002	-3.926082578901598E-003	2.000000000000000E+000	-2.6686266E-006	1.4929360E-007
2	0	0	1	1	4.263152892303697E+002	-4.2872772E-002	-4.3044642E-002	-4.036709594705215E-003	2.000000000000000E+000	-2.6765997E-006	1.7375872E-007
2	0	0	1	1	4.263172892303191E+002	-4.7870863E-002	-4.8054490E-002	-4.133966837748117E-003	2.000000000000000E+000	-2.6847811E-006	1.9865567E-007
2	0	0	1	1	4.263192892302686E+002	-5.2868959E-002	-5.3064976E-002	-4.235100981481471E-003	2.000000000000000E+000	-2.6931602E-006	2.2473553E-007
2	0	0	1	1	4.263212892302181E+002	-5.7867054E-002	-5.8061894E-002	-4.330090761818093E-003	2.000000000000000E+000	-2.7017345E-006	2.5141327E-007
2	0	0	1	1	4.263232892301676E+002	-6.2865146E-002	-6.3040800E-002	-4.419550311417363E-003	2.000000000000000E+000	-2.7104934E-006	2.7861199E-007
2	0	0	1	1	4.263252892301171E+002	-6.7863241E-002	-6.8058066E-002	-4.511107532733968E-003	2.000000000000000E+000	-2.7194335E-006	3.0701725E-007
2	0	0	1	1	4.263272892300665E+002	-7.2861336E-002	-7.3041633E-002	-4.604635001214774E-003	2.000000000000000E+000	-2.7285585E-006	3.3633006E-007
2	0	0	1	1	4.263292892300160E+002	-7.7859424E-002	-7.8053385E-002	-4.697654154723660E-003	2.000000000000000E+000	-2.7378710E-006	3.6666782E-007
2	0	0	1	1	4.263312892299655E+002	-8.2857534E-002	-8.3043948E-002	-4.787452768899442E-003	2.000000000000000E+000	-2.7473645E-006	3.9756898E-007
2	0	0	1	1	4.263332892299150E+002	-8.7855622E-002	-8.8010982E-002	-4.872886277553334E-003	2.000000000000000E+000	-2.7570322E-006	4.2886751E-007
2	0	0	1	1	4.263352892298644E+002	-9.2853710E-002	-9.3006417E-002	-4.960290259785116E-003	2.000000000000000E+000	-2.7668734E-006	4.6133883E-007
2	0	0	1	1	4.263372892298139E+002	-9.7851805E-002	-9.8005243E-002	-5.055364738735892E-003	2.000000000000000E+000	-2.7768976E-006	4.9545224E-007
2	0	0	1	1	4.263392892297634E+002	-1.0284990E-001	-1.0300873E-001	-5.136030539688363E-003	2.000000000000000E+000	-2.7870969E-006	5.2905597E-007
2	0	0	1	1	4.263412892297129E+002	-1.0784800E-001	-1.0800926E-001	-5.223710193402231E-003	2.000000000000000E+000	-2.7974659E-006	5.6420907E-007
2	0	0	1	1	4.263432892296623E+002	-1.1284609E-001	-1.1299516E-001	-5.310860114756608E-003	2.000000000000000E+000	-2.8080087E-006	6.0010149E-007
2	0	0	1	1	4.263452892296118E+002	-1.1784419E-001	-1.1799674E-001	-5.396844658611774E-003	2.000000000000000E+000	-2.8187244E-006	6.3681006E-007
2	0	0	1	1	4.263472892295613E+002	-1.2284228E-001	-1.2298687E-001	-5.484269934944077E-003	2.000000000000000E+000	-2.8296147E-006	6.7449321E-007
2	0	0	1	1	4.263492892295108E+002	-1.2784038E-001	-1.2801538E-001	-5.574831098379557E-003	2.000000000000000E+000	-2.8406816E-006	7.1366412E-007
2	0	0	1	1	4.263512892294602E+002	-1.3283847E-001	-1.3300467E-001	-5.660582247805399E-003	2.000000000000000E+000	-2.8519271E-006	7.5288386E-007
2	0	0	1	1	4.263532892294097E+002	-1.3783658E-001	-1.3802467E-001	-5.751207019683437E-003	2.000000000000000E+000	-2.8633488E-006	7.9380845E-007
2	0	0	1	1	4.263552892293592E+002	-1.4283466E-001	-1.4299701E-001	-5.837848398591115E-003	2.000000000000000E+000	-2.8749466E-006	8.3479489E-007
2	0	0	1	1	4.263572892293087E+002	-1.4783275E-001	-1.4801896E-001	-5.923430349361714E-003	2.000000000000000E+000	-2.8867164E-006	8.7677995E-007
2	0	0	1	1	4.263592892292581E+002	-1.5283082E-001	-1.5300846E-001	-6.009181510206760E-003	2.000000000000000E+000	-2.8986578E-006	9.1945560E-007
2	0	0	1	1	4.263612892292076E+002	-1.5782894E-001	-1.5799689E-001	-6.100484411945203E-003	2.000000000000000E+000	-2.9107764E-006	9.6385759E-007
2	0	0	1	1	4.263632892291571E+002	-1.6282704E-001	-1.6300525E-001	-6.190494887555881E-003	2.000000000000000E+000	-2.9230762E-006	1.0090831E-006
2	0	0	1	1	4.263652892291066E+002	-1.6782512E-001	-1.6801594E-001	-6.279848027487692E-003	2.000000000000000E+000	-2.9355547E-006	1.0551146E-006
2	0	0	1	1	4.263672892290560E+002	-1.7282322E-001	-1.7302622E-001	-6.366235370680651E-003	2.000000000000000E+000	-2.9482094E-006	1.1015256E-006
2	0	0	1	1	4.263692892290055E+002	-1.7782132E-001	-1.7802548E-001	-6.454889628306176E-003	2.000000000000000E+000	-2.9610389E-006	1.1491348E-006
2	0	0	1	1	4.263712892289550E+002	-1.8281941E-001	-1.8301326E-001	-6.552210143834392E-003	2.000000000000000E+000	-2.9740547E-006	1.1991414E-006
2	0	0	1	1	4.263732892289045E+002	-1.8781750E-001	-1.8802355E-001	-6.631858940535348E-003	2.000000000000000E+000	-2.9872479E-006	1.2469457E-006
2	0	0	1	1	4.263752892288539E+002	-1.9281562E-001	-1.9299334E-001	-6.718415554637938E-003	2.000000000000000E+000	-3.0006079E-006	1.2966095E-006
2	0	0	1	1	4.263772892288034E+002	-1.9781370E-001	-1.9799490E-001	-6.806688549861245E-003	2.000000000000000E+000	-3.0141421E-006	1.3476896E-006
2	0	0	1	1	4.263792892287529E+002	-2.0281179E-001	-2.0300266E-001	-6.901741571103535E-003	2.000000000000000E+000	-3.0278584E-006	1.4010719E-006
2	0	0	1	1	4.263812892287024E+002	-2.0780987E-001	-2.0798665E-001	-6.997176411762975E-003	2.000000000000000E+000	-3.0417664E-006	1.4553193E-006
2	0	0	1	1	4.263832892286518E+002	-2.1280797E-001	-2.1301471E-001	-7.096340037504791E-003	2.000000000000000E+000	-3.0558690E-006	1.5116248E-006
2	0	0	1	1	4.263852892286013E+002	-2.1780607E-001	-2.1800740E-001	-7.187918874781950E-003	2.000000000000000E+000	-3.0701640E-006	1.5670195E-006
2	0	0	1	1	4.263872892285508E+002	-2.2280416E-001	-2.2300179E-001	-7.285111598220171E-003	2.000000000000000E+000	-3.0846456E-006	1.6245930E-006
2	0	0	1	1	4.263892892285003E+002	-2.2780226E-001	-2.2800589E-001	-7.383025406549351E-003	2.000000000000000E+000	-3.0993235E-006	1.6833733E-006
2	0	0	1	1	4.263912892284498E+002	-2.3280036E-001	-2.3300028E-001	-7.479244291466257E-003	2.000000000000000E+000	-3.1141956E-006	1.7426660E-006
2	0	0	1	1	4.263932892283992E+002	-2.3779844E-001	-2.3799931E-001	-7.582158595141664E-003	2.000000000000000E+000	-3.1292664E-006	1.8045484E-006
2	0	0	1	1	4.263952892283487E+002	-2.4279654E-001	-2.4299750E-001	-7.684903498557091E-003	2.000000000000000E+000	-3.1445436E-006	1.8674123E-006
2	0	0	1	1	4.263972892282982E+002	-2.4779464E-001	-2.4801159E-001	-7.794195412518273E-003	2.000000000000000E+000	-3.1600341E-006	1.9330507E-006
2	0	0	1	1	4.263992892282477E+002	-2.5279272E-001	-2.5299472E-001	-7.901051944524312E-003	2.000000000000000E+000	-3.1757399E-006	1.9989243E-006
2	0	0	1	1	4.264012892281971E+002	-2.5779083E-001	-2.5796962E-001	-8.011360457910774E-003	2.000000000000000E+000	-3.1916622E-006	2.0666876E-006
2	0	0	1	1	4.264032892281466E+002	-2.6278892E-001	-2.6296717E-001	-8.127729581145882E-003	2.000000000000000E+000	-3.2078126E-006	2.1373260E-006
2	0	0	1	1	4.264052892280961E+002	-2.6778701E-001	-2.6798359E-001	-8.245709547736610E-003	2.000000000000000E+000	-3.2241999E-006	2.2097149E-006
2	0	0	1	1	4.264072892280456E+002	-2.7278510E-001	-2.7296799E-001	-8.366846307479942E-003	2.000000000000000E+000	-3.2408245E-006	2.2838813E-006
2	0	0	1	1	4.264092892279950E+002	-2.7778319E-001	-2.7795029E-001	-8.490758879512825E-003	2.000000000000000E+000	-3.2576945E-006	2.3600089E-006
2	0	0	1	1	4.264112892279445E+002	-2.8278130E-001	-2.8294808E-001	-8.617214019270451E-003	2.000000000000000E+000	-3.2748146E-006	2.4382241E-006
2	0	0	1	1	4.264132892278940E+002	-2.8777939E-001	-2.8795940E-001	-8.749178064438895E-003	2.000000000000000E+000	-3.2921942E-006	2.5194081E-006
2	0	0	1	1	4.264152892278435E+002	-2.9277748E-001	-2.9294717E-001	-8.881227096531401E-003	2.000000000000000E+000	-3.3098381E-006	2.6017303E-006
2	0	0	1	1	4.264172892277929E+002	-2.9777560E-001	-2.9796320E-001	-9.023425364830459E-003	2.000000000000000E+000	-3.3277558E-006	2.6886487E-006
2	0	0	1	1	4.264192892277424E+002	-3.0277368E-001	-3.0296737E-001	-9.156364274935574E-003	2.000000000000000E+000	-3.3459498E-006	2.7740796E-006
2	0	0	1	1	4.264212892276919E+002	-3.0777177E-001	-3.0796576E-001	-9.295702665339273E-003	2.000000000000000E+000	-3.3644144E-006	2.8627580E-006
2	0	0	1	1	4.264232892276414E+002	-3.1276989E-001	-3.1297389E-001	-9.440613237933965E-003	2.000000000000000E+000	-3.3831650E-006	2.9546654E-006
2	0	0	1	1	4.264252892275908E+002	-3.1776798E-001	-3.1796321E-001	-9.587092784689305E-003	2.000000000000000E+000	-3.4022066E-006	3.0483429E-006
2	0	0	1	1	4.264272892275403E+002	-3.2276604E-001	-3.2295203E-001	-9.727426005661594E-003	2.000000000000000E+000	-3.4215348E-006	3.1414920E-006
2	0	0	1	1	4.264292892274898E+002	-3.2776418E-001	-3.2795256E-001	-9.883694126983769E-003	2.000000000000000E+000	-3.4411610E-006	3.2413827E-006
2	0	0	1	1	4.264312892274393E+002	-3.3276227E-001	-3.3296156E-001	-1.003286363771219E-002	2.000000000000000E+000	-3.4610921E-006	3.3405579E-006
2	0	0	1	1	4.264332892273887E+002	-3.3776033E-001	-3.3796611E-001	-1.018288100345262E-002	2.000000000000000E+000	-3.4813233E-006	3.4414688E-006
2	0	0	1	1	4.264352892273382E+002	-3.4275848E-001	-3.4298527E-001	-1.033211454099123E-002	2.000000000000000E+000	-3.5018538E-006	3.5437631E-006
2	0	0	1	1	4.264372892272877E+002	-3.4775653E-001	-3.4798133E-001	-1.048255503155815E-002	2.000000000000000E+000	-3.5226838E-006	3.6477336E-006
2	0	0	1	1	4.264392892272372E+002	-3.5275462E-001	-3.5299757E-001	-1.062873736615680E-002	2.000000000000000E+000	-3.5438095E-006	3.7519185E-006
2	0	0	1	1	4.264412892271866E+002	-3.5775277E-001	-3.5798135E-001	-1.077174071178891E-002	2.000000000000000E+000	-3.5652236E-006	3.8560825E-006
2	0	0	1	1	4.264432892271361E+002	-3.6275086E-001	-3.6297894E-001	-1.092074087096584E-002	2.000000000000000E+000	-3.5869309E-006	3.9639990E-006
2	0	0	1	1	4.264452892270856E+002	-3.6774892E-001	-3.6795336E-001	-1.105492992711435E-002	2.000000000000000E+000	-3.6089195E-006	4.0676987E-006
2	0	0	1	1	4.264472892270351E+002	-3.7274703E-001	-3.7297082E-001	-1.119897192721614E-002	2.000000000000000E+000	-3.6311885E-006	4.1768899E-006
2	0	0	1	1	4.264492892269845E+002	-3.7774509E-001	-3.7795269E-001	-1.132917764678296E-002	2.000000000000000E+000	-3.6537297E-006	4.2818933E-006
2	0	0	1	1	4.264512892269340E+002	-3.8274318E-001	-3.8298926E-001	-1.146902423958325E-002	2.000000000000000E+000	-3.6765418E-006	4.3925129E-006
2	0	0	1	1	4.264532892268835E+002	-3.8774130E-001	-3.8798174E-001	-1.160590411644885E-002	2.000000000000000E+000	-3.6996303E-006	4.5028787E-006
2	0	0	1	1	4.264552892268330E+002	-3.9273939E-001	-3.9297184E-001	-1.173250825639914E-002	2.000000000000000E+000	-3.7229813E-006	4.6105456E-006
2	0	0	1	1	4.264572892267825E+002	-3.9773747E-001	-3.9799103E-001	-1.185981048648604E-002	2.000000000000000E+000	-3.7465870E-006	4.7200983E-006
2	0	0	1	1	4.264592892267319E+002	-4.0273553E-001	-4.0296805E-001	-1.197931538424908E-002	2.000000000000000E+000	-3.7704378E-006	4.8272814E-006
2	0	0	1	1	4.264612892266814E+002	-4.0773365E-001	-4.0796411E-001	-1.211113175769346E-002	2.000000000000000E+000	-3.7945404E-006	4.9409073E-006
2	0	0	1	1	4.264632892266309E+002	-4.1273177E-001	-4.1295660E-001	-1.222637749358707E-002	2.000000000000000E+000	-3.8188900E-006	5.0489634E-006
2	0	0	1	1	4.264652892265804E+002	-4.1772988E-001	-4.1794989E-001	-1.233581803717243E-002	2.000000000000000E+000	-3.8434637E-006	5.1557536E-006
2	0	0	1	1	4.264672892265298E+002	-4.2272797E-001	-4.2296508E-001	-1.244178371881494E-002	2.000000000000000E+000	-3.8682533E-006	5.2624400E-006
2	0	0	1	1	4.264692892264793E+002	-4.2772603E-001	-4.2793676E-001	-1.253952883982698E-002	2.000000000000000E+000	-3.8932430E-006	5.3661252E-006
2	0	0	1	1	4.264712892264288E+002	-4.3285370E-001	-4.3306169E-001	-1.267293375591787E-002	2.000000000000000E+000	-3.9184670E-006	5.4881621E-006
2	0	0	1	1	4.264732892263783E+002	-4.3788883E-001	-4.3810716E-001	-1.278245852639273E-002	2.000000000000000E+000	-3.9439319E-006	5.6000868E-006
2	0	0	1	1	4.264752892263277E+002	-4.4288692E-001	-4.4309366E-001	-1.287602930440497E-002	2.000000000000000E+000	-3.9696010E-006	5.7052871E-006
2	0	0	1	1	4.264772892262772E+002	-4.4788504E-001	-4.4808507E-001	-1.297216175508867E-002	2.000000000000000E+000	-3.9954571E-006	5.8126320E-006
2	0	0	1	1	4.264792892262267E+002	-4.5288309E-001	-4.5306358E-001	-1.307742894944872E-002	2.000000000000000E+000	-4.0215182E-006	5.9249069E-006
2	0	0	1	1	4.264812892261762E+002	-4.5788121E-001	-4.5809290E-001	-1.318074541551242E-002	2.000000000000000E+000	-4.0477867E-006	6.0380057E-006
2	0	0	1	1	4.264832892261256E+002	-4.6287930E-001	-4.6308473E-001	-1.327662487832032E-002	2.000000000000000E+000	-4.0742534E-006	6.1482024E-006
2	0	0	1	1	4.264852892260751E+002	-4.6787739E-001	-4.6807551E-001	-1.338551511374436E-002	2.000000000000000E+000	-4.1009243E-006	6.2654317E-006
2	0	0	1	1	4.264872892260246E+002	-4.7287551E-001	-4.7310275E-001	-1.349482826844903E-002	2.000000000000000E+000	-4.1278163E-006	6.3844404E-006
2	0	0	1	1	4.264892892259741E+002	-4.7787359E-001	-4.7809371E-001	-1.359676892772962E-002	2.000000000000000E+000	-4.1549160E-006	6.5005297E-006
2	0	0	1	1	4.264912892259235E+002	-4.8287168E-001	-4.8309678E-001	-1.370156848396517E-002	2.000000000000000E+000	-4.1822263E-006	6.6191838E-006
2	0	0	1	1	4.264932892258730E+002	-4.8786977E-001	-4.8809478E-001	-1.381607296773121E-002	2.000000000000000E+000	-4.2097554E-006	6.7435531E-006
2	0	0	1	1	4.264952892258225E+002	-4.9286792E-001	-4.9307877E-001	-1.391443192773700E-002	2.000000000000000E+000	-4.2374959E-006	6.8609111E-006
2	0	0	1	1	4.264972892257720E+002	-4.9786597E-001	-4.9806172E-001	-1.402510091469997E-002	2.000000000000000E+000	-4.2654451E-006	6.9853659E-006
2	0	0	1	1	4.264992892257214E+002	-5.0286406E-001	-5.0310105E-001	-1.414797541353135E-002	2.000000000000000E+000	-4.2936299E-006	7.1178615E-006
2	0	0	1	1	4.265012892256709E+002	-5.0786221E-001	-5.0809711E-001	-1.427262884054570E-002	2.000000000000000E+000	-4.3220621E-006	7.2518815E-006
2	0	0	1	1	4.265032892256204E+002	-5.1286024E-001	-5.1309294E-001	-1.439794012670365E-002	2.000000000000000E+000	-4.3507462E-006	7.3874812E-006
2	0	0	1	1	4.265052892255699E+002	-5.1785833E-001	-5.1807606E-001	-1.452998880267845E-002	2.000000000000000E+000	-4.3796872E-006	7.5276394E-006
2	0	0	1	1	4.265072892255193E+002	-5.2285641E-001	-5.2309799E-001	-1.466218710366873E-002	2.000000000000000E+000	-4.4088911E-006	7.6697606E-006
2	0	0	1	1	4.265092892254688E+002	-5.2785456E-001	-5.2807736E-001	-1.479309193746306E-002	2.000000000000000E+000	-4.4383605E-006	7.8118974E-006
2	0	0	1	1	4.265112892254183E+002	-5.3285265E-001	-5.3307343E-001	-1.492518280307799E-002	2.000000000000000E+000	-4.4680919E-006	7.9562187E-006
2	0	0	1	1	4.265132892253678E+002	-5.3785068E-001	-5.3806591E-001	-1.507570869378266E-002	2.000000000000000E+000	-4.4981084E-006	8.1117250E-006
2	0	0	1	1	4.265152892253172E+002	-5.4284883E-001	-5.4304773E-001	-1.523721032450947E-002	2.000000000000000E+000	-4.5284373E-006	8.2745328E-006
2	0	0	1	1	4.265172892252667E+002	-5.4784691E-001	-5.4806328E-001	-1.539576698087328E-002	2.000000000000000E+000	-4.5590850E-006	8.4378544E-006
2	0	0	1	1	4.265192892252162E+002	-5.5284500E-001	-5.5307001E-001	-1.555491626883544E-002	2.000000000000000E+000	-4.5900510E-006	8.6029577E-006
2	0	0	1	1	4.265212892251657E+002	-5.5784309E-001	-5.5807197E-001	-1.571440541495880E-002	2.000000000000000E+000	-4.6213358E-006	8.7697690E-006
2	0	0	1	1	4.265232892251152E+002	-5.6284118E-001	-5.6306404E-001	-1.587353463987207E-002	2.000000000000000E+000	-4.6529403E-006	8.9378163E-006
2	0	0	1	1	4.265252892250646E+002	-5.6783926E-001	-5.6805611E-001	-1.605179572470658E-002	2.000000000000000E+000	-4.6848841E-006	9.1183210E-006
2	0	0	1	1	4.265272892250141E+002	-5.7283741E-001	-5.7307231E-001	-1.623611900726646E-002	2.000000000000000E+000	-4.7171907E-006	9.3044700E-006
2	0	0	1	1	4.265292892249636E+002	-5.7783550E-001	-5.7806355E-001	-1.640567180139537E-002	2.000000000000000E+000	-4.7498479E-006	9.4835204E-006
2	0	0	1	1	4.265312892249131E+002	-5.8283353E-001	-5.8305442E-001	-1.658575447254404E-002	2.000000000000000E+000	-4.7828566E-006	9.6703980E-006
2	0	0	1	1	4.265332892248625E+002	-5.8783162E-001	-5.8806306E-001	-1.678670988743156E-002	2.000000000000000E+000	-4.8162501E-006	9.8716437E-006
2	0	0	1	1	4.265352892248120E+002	-5.9282976E-001	-5.9303772E-001	-1.698853396434669E-002	2.000000000000000E+000	-4.8500447E-006	1.0074841E-005
2	0	0	1	1	4.265370892247665E+002	-5.9732807E-001	-5.9755266E-001	-1.717634683960305E-002	2.000000000000000E+000	-4.8807970E-006	1.0263771E-005
2	0	0	1	1	4.265379892247438E+002	-5.9949374E-001	-5.9968400E-001	-1.725017465651035E-002	2.000000000000000E+000	-4.8962788E-006	1.0344654E-005
2	0	0	0	1	4.265381892247387E+002	-6.0016018E-001	-6.0034412E-001	-1.731463149189949E-002	2.000000000000000E+000	-4.8997417E-006	1.0394737E-005