EC-Lab ASCII FILE
Nb header lines : 53                          

Cyclic Voltammetry

Run on channel : 1 (SN 0696)
User : 
Electrode connection : standard
Ewe ctrl range : min = -10.00 V, max = 10.00 V
Ewe,I filtering : 50 kHz
Channel : Grounded
Acquisition started on : 05/17/2017 12:53:20
Saved on :
	File : 100 uM RS 10mM PB_03_CV_C01.mpr
	Directory : \\userfs\st659\w2k\EC-Lab\Data\ITO Characterisation 17-5-17\
	Host : 144.32.136.43
Device : SP-300 (SN 0182)
Address : USB
EC-Lab for windows v10.44 (software)
Internet server v10.44 (firmware)
Command interpretor v10.44 (firmware)
Electrode material : 
Initial state : 
Electrolyte : 
Comments : 
Cable : standard
Electrode surface area : 0.001 cm²
Characteristic mass : 0.001 g
Equivalent Weight : 0.000 g/eq.
Density : 0.000 g/cm3
Ei (V)              0.000               
vs.                 Eoc                 
dE/dt               100.000             
dE/dt unit          mV/s                
E1 (V)              0.100               
vs.                 Ref                 
Step percent        50                  
N                   10                  
E range min (V)     -10.000             
E range max (V)     10.000              
I Range             Auto                
I Range min         Unset               
I Range max         Unset               
I Range init        Unset               
Bandwidth           8                   
E2 (V)              -0.600              
vs.                 Ref                 
nc cycles           2                   
Reverse Scan        1                   
Ef (V)              0.000               
vs.                 Eoc                 

mode	ox/red	error	control changes	counter inc.	time/s	control/V	Ewe/V	<I>/mA	cycle number	(Q-Qo)/C	P/W
2	1	0	0	1	3.525365910941764E+002	-6.0016018E-001	-6.0038990E-001	-1.030132127925754E-002	2.000000000000000E+000	-3.0709605E-005	6.1848091E-006
2	1	0	1	1	3.525549910937116E+002	-5.9832770E-001	-5.9855509E-001	-9.960008658149624E-003	2.000000000000000E+000	-3.0893327E-005	5.9616141E-006
2	1	0	0	1	3.525883910928678E+002	-5.9498900E-001	-5.9523386E-001	-9.632822405891889E-003	2.000000000000000E+000	-3.1219617E-005	5.7337820E-006
2	1	0	0	1	3.526215910920291E+002	-5.9167027E-001	-5.9191519E-001	-9.384228933292112E-003	2.000000000000000E+000	-3.1534571E-005	5.5546675E-006
2	1	0	1	1	3.526549910911854E+002	-5.8832932E-001	-5.8858520E-001	-9.148539653321686E-003	2.000000000000000E+000	-3.1843359E-005	5.3846952E-006
2	1	0	1	1	3.526881910903467E+002	-5.8500612E-001	-5.8523262E-001	-8.930615802819342E-003	2.000000000000000E+000	-3.2142772E-005	5.2264877E-006
2	1	0	0	1	3.527215910895029E+002	-5.8166736E-001	-5.8188885E-001	-8.720037613389582E-003	2.000000000000000E+000	-3.2436827E-005	5.0740928E-006
2	1	0	1	1	3.527549910886592E+002	-5.7832867E-001	-5.7857257E-001	-8.523460940804972E-003	2.000000000000000E+000	-3.2724100E-005	4.9314408E-006
2	1	0	1	1	3.527881910878205E+002	-5.7500994E-001	-5.7524818E-001	-8.332063931491024E-003	2.000000000000000E+000	-3.3003220E-005	4.7930048E-006
2	1	0	0	1	3.528215910869767E+002	-5.7167125E-001	-5.7192862E-001	-8.149765406786989E-003	2.000000000000000E+000	-3.3277796E-005	4.6610839E-006
2	1	0	0	1	3.528547910861380E+002	-5.6834584E-001	-5.6860387E-001	-7.974734583447055E-003	2.000000000000000E+000	-3.3544795E-005	4.5344650E-006
2	1	0	1	1	3.528881910852942E+002	-5.6500709E-001	-5.6525898E-001	-7.805206791359758E-003	2.000000000000000E+000	-3.3807639E-005	4.4119633E-006
2	1	0	0	1	3.529215910844505E+002	-5.6166834E-001	-5.6189835E-001	-7.638894807540847E-003	2.000000000000000E+000	-3.4064891E-005	4.2922825E-006
2	1	0	0	1	3.529547910836118E+002	-5.5834961E-001	-5.5858791E-001	-7.482991346321924E-003	2.000000000000000E+000	-3.4315275E-005	4.1799085E-006
2	1	0	1	1	3.529881910827680E+002	-5.5501091E-001	-5.5527246E-001	-7.330164444423748E-003	2.000000000000000E+000	-3.4562010E-005	4.0702384E-006
2	1	0	0	1	3.530214910819268E+002	-5.5167657E-001	-5.5192244E-001	-7.177471183761282E-003	2.000000000000000E+000	-3.4802939E-005	3.9614074E-006
2	1	0	0	1	3.530547910810856E+002	-5.4834676E-001	-5.4856092E-001	-7.033584022881553E-003	2.000000000000000E+000	-3.5038902E-005	3.8583494E-006
2	1	0	1	1	3.530881910802418E+002	-5.4500806E-001	-5.4524559E-001	-6.894604024117290E-003	2.000000000000000E+000	-3.5270881E-005	3.7592524E-006
2	1	0	1	1	3.531213910794031E+002	-5.4168934E-001	-5.4191726E-001	-6.755220020552066E-003	2.000000000000000E+000	-3.5496832E-005	3.6607703E-006
2	1	0	0	1	3.531547910785594E+002	-5.3835058E-001	-5.3858179E-001	-6.623288731336496E-003	2.000000000000000E+000	-3.5719626E-005	3.5671826E-006
2	1	0	1	1	3.531880910777181E+002	-5.3501630E-001	-5.3524095E-001	-6.491999730882700E-003	2.000000000000000E+000	-3.5937388E-005	3.4747841E-006
2	1	0	1	1	3.532213910768769E+002	-5.3168648E-001	-5.3191656E-001	-6.368030468034316E-003	2.000000000000000E+000	-3.6150883E-005	3.3872609E-006
2	1	0	0	1	3.532547910760331E+002	-5.2834773E-001	-5.2858686E-001	-6.243521476787500E-003	2.000000000000000E+000	-3.6360881E-005	3.3002434E-006
2	1	0	0	1	3.532879910751944E+002	-5.2502894E-001	-5.2527672E-001	-6.125571771106626E-003	2.000000000000000E+000	-3.6565583E-005	3.2176204E-006
2	1	0	1	1	3.533213910743507E+002	-5.2169031E-001	-5.2192742E-001	-6.006898425230604E-003	2.000000000000000E+000	-3.6767568E-005	3.1351649E-006
2	1	0	0	1	3.533546910735095E+002	-5.1835817E-001	-5.1856977E-001	-5.891761128476156E-003	2.000000000000000E+000	-3.6965070E-005	3.0552892E-006
2	1	0	0	1	3.533879910726682E+002	-5.1502615E-001	-5.1526701E-001	-5.780335237817555E-003	2.000000000000000E+000	-3.7158792E-005	2.9784160E-006
2	1	0	1	1	3.534213910718245E+002	-5.1168740E-001	-5.1193911E-001	-5.671284886516817E-003	2.000000000000000E+000	-3.7349433E-005	2.9033524E-006
2	1	0	1	1	3.534545910709858E+002	-5.0836867E-001	-5.0862223E-001	-5.564936743693460E-003	2.000000000000000E+000	-3.7535359E-005	2.8304505E-006
2	1	0	0	1	3.534879910701420E+002	-5.0502992E-001	-5.0526351E-001	-5.460977381724796E-003	2.000000000000000E+000	-3.7718874E-005	2.7592325E-006
2	1	0	1	1	3.535212910693008E+002	-5.0170010E-001	-5.0194526E-001	-5.358076724844500E-003	2.000000000000000E+000	-3.7898415E-005	2.6894611E-006
2	1	0	1	1	3.535545910684596E+002	-4.9836579E-001	-4.9859780E-001	-5.258195564232690E-003	2.000000000000000E+000	-3.8074577E-005	2.6217247E-006
2	1	0	0	1	3.535879910676158E+002	-4.9502707E-001	-4.9523392E-001	-5.161963949633197E-003	2.000000000000000E+000	-3.8247992E-005	2.5563797E-006
2	1	0	0	1	3.536211910667771E+002	-4.9170834E-001	-4.9192581E-001	-5.065954881547804E-003	2.000000000000000E+000	-3.8417187E-005	2.4920739E-006
2	1	0	1	1	3.536545910659333E+002	-4.8836961E-001	-4.8862013E-001	-4.974188809703475E-003	2.000000000000000E+000	-3.8584261E-005	2.4304888E-006
2	1	0	0	1	3.536879910650896E+002	-4.8503092E-001	-4.8525378E-001	-4.881845046334946E-003	2.000000000000000E+000	-3.8748269E-005	2.3689338E-006
2	1	0	0	1	3.537211910642509E+002	-4.8170549E-001	-4.8194140E-001	-4.792332408747102E-003	2.000000000000000E+000	-3.8908278E-005	2.3096234E-006
2	1	0	1	1	3.537545910634071E+002	-4.7836679E-001	-4.7860390E-001	-4.703729801743356E-003	2.000000000000000E+000	-3.9066272E-005	2.2512233E-006
2	1	0	1	1	3.537877910625684E+002	-4.7504804E-001	-4.7527534E-001	-4.618501228601579E-003	2.000000000000000E+000	-3.9220442E-005	2.1950598E-006
2	1	0	0	1	3.538211910617247E+002	-4.7170931E-001	-4.7195935E-001	-4.535166778331129E-003	2.000000000000000E+000	-3.9372731E-005	2.1404144E-006
2	1	0	1	1	3.538545910608809E+002	-4.6837056E-001	-4.6860379E-001	-4.452272514786804E-003	2.000000000000000E+000	-3.9522231E-005	2.0863517E-006
2	1	0	1	1	3.538877910600422E+002	-4.6504742E-001	-4.6526077E-001	-4.369950344569384E-003	2.000000000000000E+000	-3.9668095E-005	2.0331665E-006
2	1	0	0	1	3.539211910591985E+002	-4.6170646E-001	-4.6192616E-001	-4.292216234192639E-003	2.000000000000000E+000	-3.9812181E-005	1.9826871E-006
2	1	0	0	1	3.539543910583598E+002	-4.5838773E-001	-4.5860481E-001	-4.213824185755111E-003	2.000000000000000E+000	-3.9952800E-005	1.9324800E-006
2	1	0	1	1	3.539877910575160E+002	-4.5504901E-001	-4.5525324E-001	-4.137773215867752E-003	2.000000000000000E+000	-4.0091683E-005	1.8837346E-006
2	1	0	0	1	3.540211910566723E+002	-4.5171028E-001	-4.5194572E-001	-4.064405336647293E-003	2.000000000000000E+000	-4.0228078E-005	1.8368906E-006
2	1	0	0	1	3.540543910558335E+002	-4.4838932E-001	-4.4859836E-001	-3.989901747037131E-003	2.000000000000000E+000	-4.0361207E-005	1.7898634E-006
2	1	0	1	1	3.540877910549898E+002	-4.4504613E-001	-4.4525078E-001	-3.920015487291720E-003	2.000000000000000E+000	-4.0492727E-005	1.7453899E-006
2	1	0	1	1	3.541209910541511E+002	-4.4172740E-001	-4.4194990E-001	-3.850011475350822E-003	2.000000000000000E+000	-4.0621137E-005	1.7015122E-006
2	1	0	0	1	3.541543910533073E+002	-4.3838865E-001	-4.3860766E-001	-3.779713200303902E-003	2.000000000000000E+000	-4.0747978E-005	1.6578111E-006
2	1	0	1	1	3.541877910524636E+002	-4.3504992E-001	-4.3526396E-001	-3.711854447222628E-003	2.000000000000000E+000	-4.0872510E-005	1.6156365E-006
2	1	0	1	1	3.542209910516249E+002	-4.3172899E-001	-4.3194762E-001	-3.645648793603039E-003	2.000000000000000E+000	-4.0994073E-005	1.5747294E-006
2	1	0	0	1	3.542543910507811E+002	-4.2838582E-001	-4.2862928E-001	-3.579849046239987E-003	2.000000000000000E+000	-4.1114174E-005	1.5344281E-006
2	1	0	0	1	3.542875910499424E+002	-4.2506710E-001	-4.2530489E-001	-3.517547808738440E-003	2.000000000000000E+000	-4.1231429E-005	1.4960303E-006
2	1	0	1	1	3.543209910490987E+002	-4.2172834E-001	-4.2196938E-001	-3.453575467789988E-003	2.000000000000000E+000	-4.1347281E-005	1.4573031E-006
2	1	0	0	1	3.543543910482549E+002	-4.1838965E-001	-4.1863379E-001	-3.391862123723881E-003	2.000000000000000E+000	-4.1461040E-005	1.4199481E-006
2	1	0	0	1	3.543875910474162E+002	-4.1507089E-001	-4.1530213E-001	-3.330790808713235E-003	2.000000000000000E+000	-4.1572079E-005	1.3832845E-006
2	1	0	1	1	3.544209910465725E+002	-4.1172546E-001	-4.1193616E-001	-3.270613083538283E-003	2.000000000000000E+000	-4.1681760E-005	1.3472838E-006
2	1	0	1	1	3.544541910457338E+002	-4.0840676E-001	-4.0863591E-001	-3.214282265948401E-003	2.000000000000000E+000	-4.1788844E-005	1.3134712E-006
2	1	0	0	1	3.544875910448900E+002	-4.0506804E-001	-4.0530670E-001	-3.156532493831694E-003	2.000000000000000E+000	-4.1894669E-005	1.2793638E-006
2	1	0	1	1	3.545209910440462E+002	-4.0172932E-001	-4.0197688E-001	-3.100026835131230E-003	2.000000000000000E+000	-4.1998603E-005	1.2461392E-006
2	1	0	1	1	3.545541910432075E+002	-3.9841056E-001	-3.9866981E-001	-3.044374386437183E-003	2.000000000000000E+000	-4.2100037E-005	1.2137001E-006
2	1	0	0	1	3.545875910423638E+002	-3.9506742E-001	-3.9531326E-001	-2.989137558815177E-003	2.000000000000000E+000	-4.2200241E-005	1.1816458E-006
2	1	0	0	1	3.546207910415251E+002	-3.9174646E-001	-3.9199904E-001	-2.935502731388963E-003	2.000000000000000E+000	-4.2298034E-005	1.1507143E-006
2	1	0	1	1	3.546541910406813E+002	-3.8840771E-001	-3.8866103E-001	-2.883062088162497E-003	2.000000000000000E+000	-4.2394633E-005	1.1205339E-006
2	1	0	0	1	3.546875910398376E+002	-3.8506895E-001	-3.8531661E-001	-2.830265495555338E-003	2.000000000000000E+000	-4.2489490E-005	1.0905483E-006
2	1	0	0	1	3.547207910389989E+002	-3.8175026E-001	-3.8198170E-001	-2.777913402845757E-003	2.000000000000000E+000	-4.2582029E-005	1.0611121E-006
2	1	0	1	1	3.547541910381551E+002	-3.7840933E-001	-3.7863436E-001	-2.727750869536843E-003	2.000000000000000E+000	-4.2673419E-005	1.0328203E-006
2	1	0	1	1	3.547873910373164E+002	-3.7508616E-001	-3.7530363E-001	-2.677716183857745E-003	2.000000000000000E+000	-4.2762600E-005	1.0049566E-006
2	1	0	0	1	3.548207910364727E+002	-3.7174740E-001	-3.7194923E-001	-2.628529048939801E-003	2.000000000000000E+000	-4.2850657E-005	9.7767929E-007
2	1	0	1	1	3.548541910356289E+002	-3.6840868E-001	-3.6862984E-001	-2.579858826653375E-003	2.000000000000000E+000	-4.2937081E-005	9.5101296E-007
2	1	0	1	1	3.548873910347902E+002	-3.6508992E-001	-3.6531055E-001	-2.532658042031545E-003	2.000000000000000E+000	-4.3021399E-005	9.2520668E-007
2	1	0	0	1	3.549207910339464E+002	-3.6175120E-001	-3.6199728E-001	-2.484641539717645E-003	2.000000000000000E+000	-4.3104639E-005	8.9943347E-007
2	1	0	0	1	3.549539910331077E+002	-3.5842580E-001	-3.5865715E-001	-2.438249099230034E-003	2.000000000000000E+000	-4.3185813E-005	8.7449547E-007
2	1	0	1	1	3.549873910322640E+002	-3.5508710E-001	-3.5534623E-001	-2.392303044770304E-003	2.000000000000000E+000	-4.3265922E-005	8.5009589E-007
2	1	0	0	1	3.550207910314202E+002	-3.5174835E-001	-3.5199073E-001	-2.345647274797330E-003	2.000000000000000E+000	-4.3344491E-005	8.2564611E-007
2	1	0	0	1	3.550539910305815E+002	-3.4842965E-001	-3.4865612E-001	-2.299411960894185E-003	2.000000000000000E+000	-4.3421041E-005	8.0170406E-007
2	1	0	1	1	3.550873910297378E+002	-3.4509093E-001	-3.4531692E-001	-2.255384696704651E-003	2.000000000000000E+000	-4.3496548E-005	7.7882248E-007
2	1	0	0	1	3.551206910288965E+002	-3.4175661E-001	-3.4198201E-001	-2.210322619863619E-003	2.000000000000000E+000	-4.3570351E-005	7.5589054E-007
2	1	0	0	1	3.551539910280553E+002	-3.3842677E-001	-3.3863023E-001	-2.164169926804281E-003	2.000000000000000E+000	-4.3642631E-005	7.3285338E-007
2	1	0	1	1	3.551873910272116E+002	-3.3508804E-001	-3.3528161E-001	-2.121580122750155E-003	2.000000000000000E+000	-4.3713648E-005	7.1132678E-007
2	1	0	1	1	3.552205910263729E+002	-3.3176932E-001	-3.3196411E-001	-2.078380026349025E-003	2.000000000000000E+000	-4.3782817E-005	6.8994757E-007
2	1	0	0	1	3.552539910255291E+002	-3.2843056E-001	-3.2861969E-001	-2.034254194643134E-003	2.000000000000000E+000	-4.3850945E-005	6.6849600E-007
2	1	0	1	1	3.552872910246879E+002	-3.2509631E-001	-3.2526365E-001	-1.991519962193313E-003	2.000000000000000E+000	-4.3917436E-005	6.4776907E-007
2	1	0	1	1	3.553205910238466E+002	-3.2176647E-001	-3.2197073E-001	-1.949549855511309E-003	2.000000000000000E+000	-4.3982505E-005	6.2769800E-007
2	1	0	0	1	3.553539910230029E+002	-3.1842777E-001	-3.1863728E-001	-1.908414583673152E-003	2.000000000000000E+000	-4.4046388E-005	6.0809202E-007
2	1	0	0	1	3.553871910221642E+002	-3.1510898E-001	-3.1530219E-001	-1.865428440715838E-003	2.000000000000000E+000	-4.4108489E-005	5.8817369E-007
2	1	0	1	1	3.554205910213204E+002	-3.1177026E-001	-3.1198388E-001	-1.824279178666370E-003	2.000000000000000E+000	-4.4169567E-005	5.6914570E-007
2	1	0	0	1	3.554538910204792E+002	-3.0843818E-001	-3.0865061E-001	-1.781949282425765E-003	2.000000000000000E+000	-4.4229062E-005	5.4999975E-007
2	1	0	0	1	3.554871910196380E+002	-3.0510613E-001	-3.0530134E-001	-1.740575781635318E-003	2.000000000000000E+000	-4.4287153E-005	5.3140013E-007
2	1	0	1	1	3.555205910187942E+002	-3.0176744E-001	-3.0197057E-001	-1.700449970190269E-003	2.000000000000000E+000	-4.4344069E-005	5.1348587E-007
2	1	0	1	1	3.555537910179555E+002	-2.9844871E-001	-2.9864725E-001	-1.660110598809470E-003	2.000000000000000E+000	-4.4399316E-005	4.9578745E-007
2	1	0	0	1	3.555871910171118E+002	-2.9510999E-001	-2.9527915E-001	-1.618110709411367E-003	2.000000000000000E+000	-4.4453504E-005	4.7779434E-007
2	1	0	1	1	3.556204910162705E+002	-2.9178011E-001	-2.9196543E-001	-1.579333768770364E-003	2.000000000000000E+000	-4.4506189E-005	4.6111086E-007
2	1	0	1	1	3.556537910154293E+002	-2.8844583E-001	-2.8860581E-001	-1.538211511808048E-003	2.000000000000000E+000	-4.4557539E-005	4.4393678E-007
2	1	0	0	1	3.556871910145856E+002	-2.8510708E-001	-2.8526485E-001	-1.498551495085990E-003	2.000000000000000E+000	-4.4607717E-005	4.2748405E-007
2	1	0	0	1	3.557203910137468E+002	-2.8178835E-001	-2.8194085E-001	-1.460413857628878E-003	2.000000000000000E+000	-4.4656288E-005	4.1175031E-007
2	1	0	1	1	3.557537910129031E+002	-2.7844965E-001	-2.7861586E-001	-1.421350952950887E-003	2.000000000000000E+000	-4.4703866E-005	3.9601093E-007
2	1	0	0	1	3.557871910120593E+002	-2.7511093E-001	-2.7529946E-001	-1.383613624846604E-003	2.000000000000000E+000	-4.4750166E-005	3.8090809E-007
2	1	0	0	1	3.558203910112206E+002	-2.7178550E-001	-2.7195543E-001	-1.344512262822489E-003	2.000000000000000E+000	-4.4794917E-005	3.6564742E-007
2	1	0	1	1	3.558537910103769E+002	-2.6844677E-001	-2.6864141E-001	-1.307128048461493E-003	2.000000000000000E+000	-4.4838656E-005	3.5114871E-007
2	1	0	1	1	3.558869910095382E+002	-2.6512805E-001	-2.6530784E-001	-1.269546286502089E-003	2.000000000000000E+000	-4.4880882E-005	3.3682059E-007
2	1	0	0	1	3.559203910086944E+002	-2.6178932E-001	-2.6196545E-001	-1.232260063283055E-003	2.000000000000000E+000	-4.4922122E-005	3.2280957E-007
2	1	0	1	1	3.559537910078507E+002	-2.5845060E-001	-2.5863555E-001	-1.197625802598384E-003	2.000000000000000E+000	-4.4962177E-005	3.0974860E-007
2	1	0	1	1	3.559869910070120E+002	-2.5512743E-001	-2.5531769E-001	-1.162349129506897E-003	2.000000000000000E+000	-4.5000812E-005	2.9676829E-007
2	1	0	0	1	3.560203910061682E+002	-2.5178650E-001	-2.5196245E-001	-1.127354822739205E-003	2.000000000000000E+000	-4.5038505E-005	2.8405108E-007
2	1	0	0	1	3.560535910053295E+002	-2.4846774E-001	-2.4866629E-001	-1.094483997045175E-003	2.000000000000000E+000	-4.5074845E-005	2.7216126E-007
2	1	0	1	1	3.560869910044858E+002	-2.4512900E-001	-2.4532376E-001	-1.061572283746232E-003	2.000000000000000E+000	-4.5110311E-005	2.6042892E-007
2	1	0	0	1	3.561203910036420E+002	-2.4179025E-001	-2.4197650E-001	-1.028788323416883E-003	2.000000000000000E+000	-4.5144676E-005	2.4894260E-007
2	1	0	0	1	3.561535910028033E+002	-2.3846711E-001	-2.3865561E-001	-9.993448505890576E-004	2.000000000000000E+000	-4.5177803E-005	2.3849927E-007
2	1	0	1	1	3.561869910019595E+002	-2.3512617E-001	-2.3531738E-001	-9.697311984187013E-004	2.000000000000000E+000	-4.5210149E-005	2.2819461E-007
2	1	0	1	1	3.562201910011208E+002	-2.3180744E-001	-2.3202163E-001	-9.428643811379821E-004	2.000000000000000E+000	-4.5241362E-005	2.1876492E-007
2	1	0	0	1	3.562535910002771E+002	-2.2846872E-001	-2.2867723E-001	-9.148972259181726E-004	2.000000000000000E+000	-4.5271841E-005	2.0921617E-007
2	1	0	1	1	3.562869909994333E+002	-2.2512998E-001	-2.2534274E-001	-8.890732709025718E-004	2.000000000000000E+000	-4.5301436E-005	2.0034621E-007
2	1	0	1	1	3.563201909985946E+002	-2.2180901E-001	-2.2201218E-001	-8.641102861993519E-004	2.000000000000000E+000	-4.5330005E-005	1.9184300E-007
2	1	0	0	1	3.563535909977509E+002	-2.1846582E-001	-2.1866451E-001	-8.409513897128839E-004	2.000000000000000E+000	-4.5357945E-005	1.8388623E-007
2	1	0	0	1	3.563867909969122E+002	-2.1514711E-001	-2.1535166E-001	-8.195180333913643E-004	2.000000000000000E+000	-4.5384979E-005	1.7648456E-007
2	1	0	1	1	3.564201909960684E+002	-2.1180837E-001	-2.1201107E-001	-7.976556681778301E-004	2.000000000000000E+000	-4.5411445E-005	1.6911183E-007
2	1	0	0	1	3.564535909952247E+002	-2.0846966E-001	-2.0865445E-001	-7.775930495282166E-004	2.000000000000000E+000	-4.5437217E-005	1.6224826E-007
2	1	0	0	1	3.564867909943860E+002	-2.0515093E-001	-2.0534196E-001	-7.602168469801882E-004	2.000000000000000E+000	-4.5462224E-005	1.5610442E-007
2	1	0	1	1	3.565201909935422E+002	-2.0180552E-001	-2.0199618E-001	-7.413520693835048E-004	2.000000000000000E+000	-4.5486770E-005	1.4975028E-007
2	1	0	1	1	3.565533909927035E+002	-1.9848679E-001	-1.9866435E-001	-7.248570933020184E-004	2.000000000000000E+000	-4.5510587E-005	1.4400327E-007
2	1	0	0	1	3.565867909918597E+002	-1.9514807E-001	-1.9532283E-001	-7.100437627593254E-004	2.000000000000000E+000	-4.5534023E-005	1.3868775E-007
2	1	0	1	1	3.566201909910160E+002	-1.9180933E-001	-1.9199932E-001	-6.954377469904714E-004	2.000000000000000E+000	-4.5556983E-005	1.3352357E-007
2	1	0	1	1	3.566533909901773E+002	-1.8849060E-001	-1.8870236E-001	-6.815233286895928E-004	2.000000000000000E+000	-4.5579320E-005	1.2860507E-007
2	1	0	0	1	3.566867909893335E+002	-1.8514743E-001	-1.8535180E-001	-6.678672432570707E-004	2.000000000000000E+000	-4.5601329E-005	1.2379040E-007
2	1	0	0	1	3.567199909884948E+002	-1.8182647E-001	-1.8202020E-001	-6.546537874776402E-004	2.000000000000000E+000	-4.5622764E-005	1.1916021E-007
2	1	0	1	1	3.567533909876511E+002	-1.7848776E-001	-1.7869487E-001	-6.424541593784243E-004	2.000000000000000E+000	-4.5643901E-005	1.1480326E-007
2	1	0	0	1	3.567867909868073E+002	-1.7514902E-001	-1.7534581E-001	-6.309831236730023E-004	2.000000000000000E+000	-4.5664638E-005	1.1064024E-007
2	1	0	0	1	3.568199909859686E+002	-1.7183030E-001	-1.7202653E-001	-6.202672418455916E-004	2.000000000000000E+000	-4.5684887E-005	1.0670242E-007
2	1	0	1	1	3.568533909851249E+002	-1.6848932E-001	-1.6869520E-001	-6.082720621459359E-004	2.000000000000000E+000	-4.5704874E-005	1.0261257E-007
2	1	0	1	1	3.568865909842862E+002	-1.6516615E-001	-1.6534349E-001	-5.977931389315933E-004	2.000000000000000E+000	-4.5724380E-005	9.8841205E-008
2	1	0	0	1	3.569199909834424E+002	-1.6182743E-001	-1.6200031E-001	-5.879114140454333E-004	2.000000000000000E+000	-4.5743658E-005	9.5241830E-008
2	1	0	1	1	3.569533909825986E+002	-1.5848871E-001	-1.5865724E-001	-5.777408392114685E-004	2.000000000000000E+000	-4.5762608E-005	9.1662763E-008
2	1	0	1	1	3.569865909817599E+002	-1.5516996E-001	-1.5533705E-001	-5.680237782305815E-004	2.000000000000000E+000	-4.5781104E-005	8.8235140E-008
2	1	0	0	1	3.570199909809162E+002	-1.5183124E-001	-1.5201108E-001	-5.599527271617794E-004	2.000000000000000E+000	-4.5799417E-005	8.5119019E-008
2	1	0	0	1	3.570531909800775E+002	-1.4850585E-001	-1.4867871E-001	-5.507533765935306E-004	2.000000000000000E+000	-4.5817331E-005	8.1885297E-008
2	1	0	1	1	3.570865909792337E+002	-1.4516711E-001	-1.4534260E-001	-5.420368546273750E-004	2.000000000000000E+000	-4.5835059E-005	7.8781049E-008
2	1	0	0	1	3.571199909783900E+002	-1.4182839E-001	-1.4200915E-001	-5.338697001894196E-004	2.000000000000000E+000	-4.5852503E-005	7.5814384E-008
2	1	0	0	1	3.571531909775513E+002	-1.3850965E-001	-1.3870753E-001	-5.251105581030261E-004	2.000000000000000E+000	-4.5869558E-005	7.2836791E-008
2	1	0	1	1	3.571865909767075E+002	-1.3517094E-001	-1.3534540E-001	-5.165693851476739E-004	2.000000000000000E+000	-4.5886427E-005	6.9915288E-008
2	1	0	1	1	3.572197909758688E+002	-1.3184553E-001	-1.3203381E-001	-5.088648160758394E-004	2.000000000000000E+000	-4.5902925E-005	6.7187358E-008
2	1	0	0	1	3.572531909750251E+002	-1.2850679E-001	-1.2868167E-001	-5.014693669660062E-004	2.000000000000000E+000	-4.5919278E-005	6.4529921E-008
2	1	0	1	1	3.572865909741813E+002	-1.2516807E-001	-1.2533736E-001	-4.921604323674337E-004	2.000000000000000E+000	-4.5935358E-005	6.1686087E-008
2	1	0	1	1	3.573364909729207E+002	-1.2017978E-001	-1.2032596E-001	-4.801801981847609E-004	2.000000000000000E+000	-4.5958353E-005	5.7778145E-008
2	1	0	1	1	3.573864909716576E+002	-1.1517631E-001	-1.1532227E-001	-4.656313371799144E-004	2.000000000000000E+000	-4.5981065E-005	5.3697661E-008
2	1	0	1	1	3.574197909708164E+002	-1.1184648E-001	-1.1198720E-001	-4.590912419526241E-004	2.000000000000000E+000	-4.5996156E-005	5.1412339E-008
2	1	0	0	1	3.574531909699726E+002	-1.0850776E-001	-1.0865478E-001	-4.522299784177975E-004	2.000000000000000E+000	-4.6011075E-005	4.9136951E-008
2	1	0	0	1	3.574863909691339E+002	-1.0518902E-001	-1.0533145E-001	-4.461123041484677E-004	2.000000000000000E+000	-4.6025685E-005	4.6989655E-008
2	1	0	1	1	3.575197909682902E+002	-1.0185029E-001	-1.0201458E-001	-4.378369799047102E-004	2.000000000000000E+000	-4.6040142E-005	4.4665754E-008
2	1	0	0	1	3.575530909674490E+002	-9.8518223E-002	-9.8674931E-002	-4.315765623126968E-004	2.000000000000000E+000	-4.6054323E-005	4.2585789E-008
2	1	0	0	1	3.575863909666077E+002	-9.5186159E-002	-9.5357247E-002	-4.243431924159163E-004	2.000000000000000E+000	-4.6068268E-005	4.0464197E-008
2	1	0	1	1	3.576197909657640E+002	-9.1847442E-002	-9.1993235E-002	-4.166113446929854E-004	2.000000000000000E+000	-4.6082019E-005	3.8325425E-008
2	1	0	1	1	3.576529909649253E+002	-8.8528700E-002	-8.8674307E-002	-4.115313793078747E-004	2.000000000000000E+000	-4.6095465E-005	3.6492260E-008
2	1	0	0	1	3.576863909640815E+002	-8.5189983E-002	-8.5347384E-002	-4.038840855436201E-004	2.000000000000000E+000	-4.6108784E-005	3.4470450E-008
2	1	0	1	1	3.577196909632403E+002	-8.1860155E-002	-8.2036063E-002	-3.975006647335181E-004	2.000000000000000E+000	-4.6121837E-005	3.2609389E-008
2	1	0	1	1	3.577529909623991E+002	-7.8525856E-002	-7.8702293E-002	-3.904115673908064E-004	2.000000000000000E+000	-4.6134650E-005	3.0726287E-008
2	1	0	0	1	3.577863909615553E+002	-7.5187117E-002	-7.5377584E-002	-3.833013075435930E-004	2.000000000000000E+000	-4.6147274E-005	2.8892327E-008
2	1	0	0	1	3.578195909607166E+002	-7.1868390E-002	-7.2044469E-002	-3.763171533905227E-004	2.000000000000000E+000	-4.6159592E-005	2.7111570E-008
2	1	0	1	1	3.578529909598728E+002	-6.8529665E-002	-6.8713963E-002	-3.701836815189060E-004	2.000000000000000E+000	-4.6171754E-005	2.5436789E-008
2	1	0	0	1	3.578863909590291E+002	-6.5190934E-002	-6.5369830E-002	-3.631561950337690E-004	2.000000000000000E+000	-4.6183701E-005	2.3739458E-008
2	1	0	0	1	3.579195909581904E+002	-6.1865535E-002	-6.2062748E-002	-3.563445114869641E-004	2.000000000000000E+000	-4.6195339E-005	2.2115719E-008
2	1	0	1	1	3.579529909573466E+002	-5.8526807E-002	-5.8730099E-002	-3.490679083477990E-004	2.000000000000000E+000	-4.6206820E-005	2.0500792E-008
2	1	0	1	1	3.579861909565079E+002	-5.5208072E-002	-5.5393204E-002	-3.424537410346259E-004	2.000000000000000E+000	-4.6218003E-005	1.8969610E-008
2	1	0	0	1	3.580195909556642E+002	-5.1869340E-002	-5.2058760E-002	-3.350104151501939E-004	2.000000000000000E+000	-4.6229015E-005	1.7440227E-008
2	1	0	1	1	3.580529909548204E+002	-4.8530616E-002	-4.8716955E-002	-3.270317314073255E-004	2.000000000000000E+000	-4.6239773E-005	1.5931990E-008
2	1	0	1	1	3.580861909539817E+002	-4.5207437E-002	-4.5389090E-002	-3.212405615435005E-004	2.000000000000000E+000	-4.6250243E-005	1.4580817E-008
2	1	0	0	1	3.581195909531380E+002	-4.1866485E-002	-4.2046878E-002	-3.133609797232907E-004	2.000000000000000E+000	-4.6260531E-005	1.3175851E-008
2	1	0	0	1	3.581527909522993E+002	-3.8547754E-002	-3.8701925E-002	-3.056869371579935E-004	2.000000000000000E+000	-4.6270499E-005	1.1830673E-008
2	1	0	1	1	3.581861909514555E+002	-3.5209026E-002	-3.5383701E-002	-2.994723116383595E-004	2.000000000000000E+000	-4.6280296E-005	1.0596438E-008
2	1	0	0	1	3.582195909506117E+002	-3.1870302E-002	-3.2053117E-002	-2.917847554827946E-004	2.000000000000000E+000	-4.6289882E-005	9.3526111E-009
2	1	0	0	1	3.582527909497730E+002	-2.8547123E-002	-2.8719902E-002	-2.841066136641999E-004	2.000000000000000E+000	-4.6299145E-005	8.1595140E-009
2	1	0	1	1	3.582861909489293E+002	-2.5206177E-002	-2.5377726E-002	-2.780923526814957E-004	2.000000000000000E+000	-4.6308232E-005	7.0573516E-009
2	1	0	1	1	3.583193909480906E+002	-2.1887442E-002	-2.2049848E-002	-2.705366038834550E-004	2.000000000000000E+000	-4.6317040E-005	5.9652909E-009
2	1	0	0	1	3.583527909472468E+002	-1.8548712E-002	-1.8734891E-002	-2.642474693725990E-004	2.000000000000000E+000	-4.6325673E-005	4.9506474E-009
2	1	0	1	1	3.583861909464031E+002	-1.5209983E-002	-1.5384499E-002	-2.567021193031153E-004	2.000000000000000E+000	-4.6334073E-005	3.9492334E-009
2	1	0	1	1	3.584193909455644E+002	-1.1889027E-002	-1.2061771E-002	-2.489720307783964E-004	2.000000000000000E+000	-4.6342167E-005	3.0030436E-009
2	1	0	0	1	3.584527909447206E+002	-8.5458588E-003	-8.7178145E-003	-2.419209233125406E-004	2.000000000000000E+000	-4.6350055E-005	2.1090216E-009
2	1	0	0	1	3.584859909438819E+002	-5.2271229E-003	-5.4037222E-003	-2.346539242289165E-004	2.000000000000000E+000	-4.6357665E-005	1.2680046E-009
2	1	0	1	1	3.585193909430382E+002	-1.8883953E-003	-2.0618136E-003	-2.279821037040226E-004	2.000000000000000E+000	-4.6365090E-005	4.7005660E-010
2	1	0	0	1	3.585527909421944E+002	1.4562792E-003	1.2917179E-003	-2.188238054892560E-004	2.000000000000000E+000	-4.6372250E-005	2.8265862E-010
2	1	0	0	1	3.585859909413557E+002	4.7690645E-003	4.6341331E-003	-2.120690012344742E-004	2.000000000000000E+000	-4.6379100E-005	9.8275599E-010
2	1	0	1	1	3.586193909405119E+002	8.1144553E-003	7.9641100E-003	-2.051884968565258E-004	2.000000000000000E+000	-4.6385765E-005	1.6341437E-009
2	1	0	1	1	3.586525909396732E+002	1.1433187E-002	1.1290805E-002	-1.984154986065633E-004	2.000000000000000E+000	-4.6392157E-005	2.2402709E-009
2	1	0	0	1	3.586859909388295E+002	1.4771915E-002	1.4667242E-002	-1.899021671993564E-004	2.000000000000000E+000	-4.6398338E-005	2.7853411E-009
2	1	0	1	1	3.587193909379857E+002	1.8110638E-002	1.7982226E-002	-1.835826773724496E-004	2.000000000000000E+000	-4.6404275E-005	3.3012251E-009
2	1	0	1	1	3.587525909371470E+002	2.1429373E-002	2.1293567E-002	-1.764971012845414E-004	2.000000000000000E+000	-4.6409958E-005	3.7582528E-009
2	1	0	0	1	3.587859909363033E+002	2.4772540E-002	2.4632780E-002	-1.689081257339878E-004	2.000000000000000E+000	-4.6415425E-005	4.1606767E-009
2	1	0	0	1	3.588191909354646E+002	2.8093496E-002	2.7943540E-002	-1.620897120863918E-004	2.000000000000000E+000	-4.6420617E-005	4.5293604E-009
2	1	0	1	1	3.588525909346208E+002	3.1432223E-002	3.1279530E-002	-1.544740683261305E-004	2.000000000000000E+000	-4.6425597E-005	4.8318762E-009
2	1	0	0	1	3.588859909337771E+002	3.4770947E-002	3.4633700E-002	-1.464235307013146E-004	2.000000000000000E+000	-4.6430330E-005	5.0711888E-009
2	1	0	0	1	3.589191909329384E+002	3.8089685E-002	3.7968908E-002	-1.400932613133013E-004	2.000000000000000E+000	-4.6434787E-005	5.3191882E-009
2	1	0	1	1	3.589525909320946E+002	4.1430630E-002	4.1306335E-002	-1.323781640143423E-004	2.000000000000000E+000	-4.6439036E-005	5.4680567E-009
2	1	0	1	1	3.589857909312559E+002	4.4753809E-002	4.4630155E-002	-1.240434322532259E-004	2.000000000000000E+000	-4.6442998E-005	5.5360778E-009
2	1	0	0	1	3.590191909304122E+002	4.8092533E-002	4.7991201E-002	-1.176755693771796E-004	2.000000000000000E+000	-4.6446734E-005	5.6473919E-009
2	1	0	1	1	3.590525909295684E+002	5.1431254E-002	5.1320840E-002	-1.104291096214215E-004	2.000000000000000E+000	-4.6450245E-005	5.6673146E-009
2	1	0	1	1	3.590857909287297E+002	5.4749988E-002	5.4654580E-002	-1.028475661818180E-004	2.000000000000000E+000	-4.6453486E-005	5.6210907E-009
2	1	0	0	1	3.591191909278859E+002	5.8090933E-002	5.8010589E-002	-9.516093274096750E-005	2.000000000000000E+000	-4.6456487E-005	5.5203420E-009
2	1	0	0	1	3.591523909270472E+002	6.1414111E-002	6.1328303E-002	-8.834781468673692E-005	2.000000000000000E+000	-4.6459238E-005	5.4182214E-009
2	1	0	1	1	3.591857909262035E+002	6.4752840E-002	6.4634010E-002	-8.186758329800254E-005	2.000000000000000E+000	-4.6461777E-005	5.2914304E-009
2	1	0	0	1	3.592191909253597E+002	6.8091571E-002	6.7986898E-002	-7.356193543004092E-005	2.000000000000000E+000	-4.6464076E-005	5.0012479E-009
2	1	0	0	1	3.592523909245210E+002	7.1410298E-002	7.1297191E-002	-6.651775140779947E-005	2.000000000000000E+000	-4.6466095E-005	4.7425290E-009
2	1	0	1	1	3.592857909236773E+002	7.4749023E-002	7.4635163E-002	-5.935721303945598E-005	2.000000000000000E+000	-4.6467892E-005	4.4301354E-009
2	1	0	1	1	3.593189909228386E+002	7.8074418E-002	7.7972069E-002	-5.032847004376529E-005	2.000000000000000E+000	-4.6469402E-005	3.9242152E-009
2	1	0	0	1	3.593523909219948E+002	8.1413150E-002	8.1304803E-002	-4.445710164005778E-005	2.000000000000000E+000	-4.6470683E-005	3.6145760E-009
2	1	0	1	1	3.593857909211511E+002	8.4751882E-002	8.4644854E-002	-3.646430015890082E-005	2.000000000000000E+000	-4.6471730E-005	3.0865153E-009
2	1	0	1	1	3.594189909203124E+002	8.8070609E-002	8.7939397E-002	-2.940744796471021E-005	2.000000000000000E+000	-4.6472527E-005	2.5860731E-009
2	1	0	0	1	3.594523909194686E+002	9.1409341E-002	9.1286860E-002	-2.167550234638072E-005	2.000000000000000E+000	-4.6473073E-005	1.9786885E-009
2	1	0	1	1	3.594856909186274E+002	9.4743624E-002	9.4624735E-002	-1.356842476500891E-005	2.000000000000000E+000	-4.6473360E-005	1.2839086E-009
2	1	0	1	1	3.595189909177861E+002	9.8073460E-002	9.7954117E-002	-5.740791711927133E-006	2.000000000000000E+000	-4.6473371E-005	5.6233418E-010
2	0	0	0	1	3.595377909173112E+002	9.9906117E-002	9.9780254E-002	-6.211316872395414E-006	2.000000000000000E+000	-4.6473309E-005	6.1976679E-010
2	0	0	1	1	3.595561909168464E+002	9.8066792E-002	9.7916842E-002	-2.510067777698331E-004	2.000000000000000E+000	-4.6477628E-005	2.4577790E-008
2	0	0	1	1	3.595893909160077E+002	9.4745837E-002	9.4572142E-002	-3.504983484290940E-004	2.000000000000000E+000	-4.6488101E-005	3.3147380E-008
2	0	0	0	1	3.596227909151639E+002	9.1402672E-002	9.1241769E-002	-4.003503511450157E-004	2.000000000000000E+000	-4.6500991E-005	3.6528675E-008
2	0	0	0	1	3.596559909143252E+002	8.8083930E-002	8.7907873E-002	-4.432645135117735E-004	2.000000000000000E+000	-4.6515332E-005	3.8966441E-008
2	0	0	1	1	3.596893909134815E+002	8.4745206E-002	8.4597677E-002	-4.802090754061224E-004	2.000000000000000E+000	-4.6531088E-005	4.0624574E-008
2	0	0	0	1	3.597227909126377E+002	8.1406489E-002	8.1252381E-002	-5.155283790561414E-004	2.000000000000000E+000	-4.6548044E-005	4.1887908E-008
2	0	0	0	1	3.597559909117990E+002	7.8087755E-002	7.7927254E-002	-5.491506547009029E-004	2.000000000000000E+000	-4.6566038E-005	4.2793804E-008
2	0	0	1	1	3.597893909109553E+002	7.4742354E-002	7.4570566E-002	-5.810673159174738E-004	2.000000000000000E+000	-4.6585243E-005	4.3330520E-008
2	0	0	1	1	3.598225909101166E+002	7.1423627E-002	7.1244024E-002	-6.104437658103516E-004	2.000000000000000E+000	-4.6605343E-005	4.3490470E-008
2	0	0	0	1	3.598559909092728E+002	6.8084896E-002	6.7921005E-002	-6.394590168646488E-004	2.000000000000000E+000	-4.6626537E-005	4.3432699E-008
2	0	0	1	1	3.598893909084291E+002	6.4746179E-002	6.4587340E-002	-6.668805587792597E-004	2.000000000000000E+000	-4.6648674E-005	4.3072042E-008
2	0	0	1	1	3.599225909075903E+002	6.1427440E-002	6.1279189E-002	-6.937841851807503E-004	2.000000000000000E+000	-4.6671579E-005	4.2514532E-008
2	0	0	0	1	3.599559909067466E+002	5.8084272E-002	5.7937637E-002	-7.203075933190396E-004	2.000000000000000E+000	-4.6695521E-005	4.1732921E-008
2	0	0	0	1	3.599891909059079E+002	5.4763317E-002	5.4588389E-002	-7.466809372528105E-004	2.000000000000000E+000	-4.6720193E-005	4.0760110E-008
2	0	0	1	1	3.600225909050641E+002	5.1424593E-002	5.1248580E-002	-7.713438698542735E-004	2.000000000000000E+000	-4.6745867E-005	3.9530278E-008
2	0	0	0	1	3.600559909042204E+002	4.8085868E-002	4.7914047E-002	-7.948322376493408E-004	2.000000000000000E+000	-4.6772344E-005	3.8083630E-008
2	0	0	0	1	3.600891909033817E+002	4.4767134E-002	4.4581950E-002	-8.203716651419032E-004	2.000000000000000E+000	-4.6799476E-005	3.6573770E-008
2	0	0	1	1	3.601225909025379E+002	4.1423965E-002	4.1223407E-002	-8.434021457301034E-004	2.000000000000000E+000	-4.6827572E-005	3.4767911E-008
2	0	0	1	1	3.601557909016992E+002	3.8103011E-002	3.7908331E-002	-8.646904006376693E-004	2.000000000000000E+000	-4.6856239E-005	3.2778971E-008
2	0	0	0	1	3.601891909008555E+002	3.4764286E-002	3.4581810E-002	-8.883995684125165E-004	2.000000000000000E+000	-4.6885838E-005	3.0722465E-008
2	0	0	1	1	3.602225909000117E+002	3.1425554E-002	3.1213973E-002	-9.099177965375370E-004	2.000000000000000E+000	-4.6916186E-005	2.8402150E-008
2	0	0	1	1	3.602557908991730E+002	2.8106825E-002	2.7895197E-002	-9.315378114465728E-004	2.000000000000000E+000	-4.6947065E-005	2.5985431E-008
2	0	0	0	1	3.602891908983293E+002	2.4765879E-002	2.4557475E-002	-9.529773035319503E-004	2.000000000000000E+000	-4.6978850E-005	2.3402716E-008
2	0	0	0	1	3.603223908974906E+002	2.1442700E-002	2.1243891E-002	-9.728420812798854E-004	2.000000000000000E+000	-4.7011134E-005	2.0666951E-008
2	0	0	1	1	3.603557908966468E+002	1.8103974E-002	1.7919283E-002	-9.937735495475011E-004	2.000000000000000E+000	-4.7044294E-005	1.7807709E-008
2	0	0	0	1	3.604057908953837E+002	1.3103772E-002	1.2946561E-002	-1.019823509515448E-003	2.000000000000000E+000	-4.7095455E-005	1.3203207E-008
2	0	0	1	1	3.604557908941206E+002	8.1077907E-003	7.9463432E-003	-1.045845302232246E-003	2.000000000000000E+000	-4.7147634E-005	8.3106455E-009
2	0	0	1	1	3.604889908932819E+002	4.7823931E-003	4.6396274E-003	-1.064846427391417E-003	2.000000000000000E+000	-4.7183195E-005	4.9404907E-009
2	0	0	0	1	3.605223908924381E+002	1.4436671E-003	1.2619703E-003	-1.085474694262768E-003	2.000000000000000E+000	-4.7219641E-005	1.3698368E-009
2	0	0	1	1	3.605557908915944E+002	-1.8950592E-003	-2.0931384E-003	-1.103321169969231E-003	2.000000000000000E+000	-4.7256730E-005	2.3094040E-009
2	0	0	1	1	3.605889908907557E+002	-5.2137943E-003	-5.3925551E-003	-1.121136198615001E-003	2.000000000000000E+000	-4.7294179E-005	6.0457888E-009
2	0	0	0	1	3.606223908899119E+002	-8.5525224E-003	-8.7366384E-003	-1.140224213869032E-003	2.000000000000000E+000	-4.7332484E-005	9.9617266E-009
2	0	0	1	1	3.606556908890707E+002	-1.1886822E-002	-1.2078780E-002	-1.158524829612317E-003	2.000000000000000E+000	-4.7371293E-005	1.3993566E-008
2	0	0	1	1	3.606889908882295E+002	-1.5216648E-002	-1.5407176E-002	-1.176389791409611E-003	2.000000000000000E+000	-4.7410707E-005	1.8124844E-008
2	0	0	0	1	3.607223908873857E+002	-1.8555377E-002	-1.8741593E-002	-1.194360589230475E-003	2.000000000000000E+000	-4.7450827E-005	2.2384219E-008
2	0	0	0	1	3.607555908865470E+002	-2.1874109E-002	-2.2059694E-002	-1.211120861550659E-003	2.000000000000000E+000	-4.7491289E-005	2.6716956E-008
2	0	0	1	1	3.607889908857032E+002	-2.5212837E-002	-2.5369335E-002	-1.228817077822495E-003	2.000000000000000E+000	-4.7532576E-005	3.1174274E-008
2	0	0	0	1	3.608222908848620E+002	-2.8544899E-002	-2.8718065E-002	-1.246686758901213E-003	2.000000000000000E+000	-4.7574322E-005	3.5802433E-008
2	0	0	0	1	3.608555908840208E+002	-3.1876963E-002	-3.2047875E-002	-1.264110698197056E-003	2.000000000000000E+000	-4.7616664E-005	4.0512063E-008
2	0	0	1	1	3.608889908831770E+002	-3.5215691E-002	-3.5408478E-002	-1.280550398525386E-003	2.000000000000000E+000	-4.7659687E-005	4.5342340E-008
2	0	0	1	1	3.609221908823383E+002	-3.8534425E-002	-3.8708463E-002	-1.297179780007426E-003	2.000000000000000E+000	-4.7703001E-005	5.0211835E-008
2	0	0	0	1	3.609555908814946E+002	-4.1873153E-002	-4.2070836E-002	-1.315214203536419E-003	2.000000000000000E+000	-4.7747159E-005	5.5332162E-008
2	0	0	1	1	3.609888908806533E+002	-4.5205213E-002	-4.5406595E-002	-1.331093674801789E-003	2.000000000000000E+000	-4.7791738E-005	6.0440428E-008
2	0	0	1	1	3.610221908798121E+002	-4.8537277E-002	-4.8740622E-002	-1.346025145545283E-003	2.000000000000000E+000	-4.7836842E-005	6.5606102E-008
2	0	0	0	1	3.610555908789684E+002	-5.1876012E-002	-5.2076906E-002	-1.363253338487183E-003	2.000000000000000E+000	-4.7882622E-005	7.0994012E-008
2	0	0	0	1	3.610887908781297E+002	-5.5194743E-002	-5.5392459E-002	-1.378699148260269E-003	2.000000000000000E+000	-4.7928665E-005	7.6369538E-008
2	0	0	1	1	3.611221908772859E+002	-5.8533471E-002	-5.8738813E-002	-1.394276367179741E-003	2.000000000000000E+000	-4.7975507E-005	8.1898136E-008
2	0	0	0	1	3.611554908764447E+002	-6.1863292E-002	-6.2055953E-002	-1.409904085050148E-003	2.000000000000000E+000	-4.8022725E-005	8.7492943E-008
2	0	0	0	1	3.611887908756034E+002	-6.5197594E-002	-6.5370999E-002	-1.425864180507943E-003	2.000000000000000E+000	-4.8070469E-005	9.3210168E-008
2	0	0	1	1	3.612221908747597E+002	-6.8536319E-002	-6.8692036E-002	-1.440941213548754E-003	2.000000000000000E+000	-4.8118873E-005	9.8981182E-008
2	0	0	1	1	3.612553908739210E+002	-7.1855053E-002	-7.2037436E-002	-1.457173916423925E-003	2.000000000000000E+000	-4.8167512E-005	1.0497107E-007
2	0	0	0	1	3.612887908730772E+002	-7.5193793E-002	-7.5366206E-002	-1.472379095311795E-003	2.000000000000000E+000	-4.8216967E-005	1.1096763E-007
2	0	0	1	1	3.613221908722335E+002	-7.8532510E-002	-7.8730427E-002	-1.487219293878836E-003	2.000000000000000E+000	-4.8266917E-005	1.1708941E-007
2	0	0	1	1	3.613553908713948E+002	-8.1857912E-002	-8.2051463E-002	-1.503717002210407E-003	2.000000000000000E+000	-4.8317095E-005	1.2338218E-007
2	0	0	0	1	3.613887908705510E+002	-8.5196637E-002	-8.5378423E-002	-1.516805129436695E-003	2.000000000000000E+000	-4.8368067E-005	1.2950242E-007
2	0	0	0	1	3.614219908697123E+002	-8.8515379E-002	-8.8695817E-002	-1.532283772860497E-003	2.000000000000000E+000	-4.8419206E-005	1.3590716E-007
2	0	0	1	1	3.614553908688686E+002	-9.1854095E-002	-9.1998562E-002	-1.547553911894080E-003	2.000000000000000E+000	-4.8471167E-005	1.4237274E-007
2	0	0	0	1	3.614887908680248E+002	-9.5192820E-002	-9.5362917E-002	-1.563000751476560E-003	2.000000000000000E+000	-4.8523638E-005	1.4905231E-007
2	0	0	0	1	3.615219908671861E+002	-9.8516002E-002	-9.8682381E-002	-1.577996951794669E-003	2.000000000000000E+000	-4.8576305E-005	1.5572050E-007
2	0	0	1	1	3.615553908663424E+002	-1.0185696E-001	-1.0202766E-001	-1.591746463233932E-003	2.000000000000000E+000	-4.8629758E-005	1.6240217E-007
2	0	0	1	1	3.615885908655036E+002	-1.0517569E-001	-1.0535772E-001	-1.606767586027107E-003	2.000000000000000E+000	-4.8683381E-005	1.6928537E-007
2	0	0	0	1	3.616219908646599E+002	-1.0851442E-001	-1.0867543E-001	-1.620784916931708E-003	2.000000000000000E+000	-4.8737813E-005	1.7613949E-007
2	0	0	1	1	3.616553908638161E+002	-1.1185315E-001	-1.1201480E-001	-1.635669053055745E-003	2.000000000000000E+000	-4.8792728E-005	1.8321914E-007
2	0	0	1	1	3.616885908629774E+002	-1.1517411E-001	-1.1534119E-001	-1.651285533117948E-003	2.000000000000000E+000	-4.8847814E-005	1.9046125E-007
2	0	0	0	1	3.617219908621337E+002	-1.1851726E-001	-1.1868516E-001	-1.665610019626915E-003	2.000000000000000E+000	-4.8903734E-005	1.9768318E-007
2	0	0	0	1	3.617551908612950E+002	-1.2183600E-001	-1.2199759E-001	-1.679501420739044E-003	2.000000000000000E+000	-4.8959788E-005	2.0489513E-007
2	0	0	1	1	3.617885908604512E+002	-1.2517473E-001	-1.2533078E-001	-1.694998048928774E-003	2.000000000000000E+000	-4.9016675E-005	2.1243542E-007
2	0	0	0	1	3.618219908596075E+002	-1.2851346E-001	-1.2869689E-001	-1.709748875488271E-003	2.000000000000000E+000	-4.9074068E-005	2.2003935E-007
2	0	0	0	1	3.618551908587688E+002	-1.3183221E-001	-1.3200790E-001	-1.723424778050411E-003	2.000000000000000E+000	-4.9131580E-005	2.2750568E-007
2	0	0	1	1	3.618885908579250E+002	-1.3517760E-001	-1.3535197E-001	-1.738818966267802E-003	2.000000000000000E+000	-4.9189926E-005	2.3535257E-007
2	0	0	1	1	3.619217908570863E+002	-1.3849632E-001	-1.3867559E-001	-1.753034227984715E-003	2.000000000000000E+000	-4.9248425E-005	2.4310305E-007
2	0	0	0	1	3.619551908562426E+002	-1.4183505E-001	-1.4203039E-001	-1.767695187930556E-003	2.000000000000000E+000	-4.9307750E-005	2.5106644E-007
2	0	0	1	1	3.619885908553988E+002	-1.4517377E-001	-1.4536254E-001	-1.782953556925083E-003	2.000000000000000E+000	-4.9367565E-005	2.5917467E-007
2	0	0	1	1	3.620217908545601E+002	-1.4849252E-001	-1.4869080E-001	-1.796015205303168E-003	2.000000000000000E+000	-4.9427501E-005	2.6705095E-007
2	0	0	0	1	3.620551908537163E+002	-1.5183790E-001	-1.5201855E-001	-1.811885355731367E-003	2.000000000000000E+000	-4.9488288E-005	2.7544019E-007
2	0	0	0	1	3.620883908528776E+002	-1.5515664E-001	-1.5534148E-001	-1.825841975665692E-003	2.000000000000000E+000	-4.9549199E-005	2.8362899E-007
2	0	0	1	1	3.621217908520339E+002	-1.5849537E-001	-1.5867370E-001	-1.841572847169366E-003	2.000000000000000E+000	-4.9610975E-005	2.9220919E-007
2	0	0	0	1	3.621551908511901E+002	-1.6183409E-001	-1.6203789E-001	-1.856457997885254E-003	2.000000000000000E+000	-4.9673265E-005	3.0081654E-007
2	0	0	0	1	3.621883908503514E+002	-1.6515283E-001	-1.6535282E-001	-1.870676971822693E-003	2.000000000000000E+000	-4.9735670E-005	3.0932171E-007
2	0	0	1	1	3.622217908495077E+002	-1.6849598E-001	-1.6870393E-001	-1.886810209896936E-003	2.000000000000000E+000	-4.9798953E-005	3.1831229E-007
2	0	0	1	1	3.622549908486690E+002	-1.7181695E-001	-1.7200777E-001	-1.901866873177583E-003	2.000000000000000E+000	-4.9862367E-005	3.2713587E-007
2	0	0	0	1	3.622883908478252E+002	-1.7515567E-001	-1.7534010E-001	-1.916273340832921E-003	2.000000000000000E+000	-4.9926657E-005	3.3599957E-007
2	0	0	1	1	3.623217908469815E+002	-1.7849441E-001	-1.7868859E-001	-1.933289205335309E-003	2.000000000000000E+000	-4.9991471E-005	3.4545673E-007
2	0	0	1	1	3.623549908461428E+002	-1.8181314E-001	-1.8200997E-001	-1.949014670999193E-003	2.000000000000000E+000	-5.0056446E-005	3.5474008E-007
2	0	0	0	1	3.623883908452990E+002	-1.8515411E-001	-1.8536372E-001	-1.965187985471056E-003	2.000000000000000E+000	-5.0122340E-005	3.6427457E-007
2	0	0	0	1	3.624215908444603E+002	-1.8847728E-001	-1.8868683E-001	-1.982686310390513E-003	2.000000000000000E+000	-5.0188395E-005	3.7410680E-007
2	0	0	1	1	3.624549908436165E+002	-1.9181600E-001	-1.9199200E-001	-1.997706989908084E-003	2.000000000000000E+000	-5.0255403E-005	3.8354375E-007
2	0	0	0	1	3.624883908427728E+002	-1.9515471E-001	-1.9534351E-001	-2.016008112806488E-003	2.000000000000000E+000	-5.0322960E-005	3.9381410E-007
2	0	0	0	1	3.625215908419341E+002	-1.9847345E-001	-1.9866078E-001	-2.034942945772660E-003	2.000000000000000E+000	-5.0390732E-005	4.0426335E-007
2	0	0	1	1	3.625549908410903E+002	-2.0181218E-001	-2.0199770E-001	-2.054329772188262E-003	2.000000000000000E+000	-5.0459548E-005	4.1496989E-007
2	0	0	1	1	3.625881908402516E+002	-2.0513760E-001	-2.0534839E-001	-2.073339073365252E-003	2.000000000000000E+000	-5.0528604E-005	4.2575684E-007
2	0	0	0	1	3.626215908394079E+002	-2.0847632E-001	-2.0867887E-001	-2.093437853408332E-003	2.000000000000000E+000	-5.0598723E-005	4.3685625E-007
2	0	0	1	1	3.626549908385641E+002	-2.1181506E-001	-2.1200155E-001	-2.116551714061658E-003	2.000000000000000E+000	-5.0669558E-005	4.4871223E-007
2	0	0	1	1	3.626881908377254E+002	-2.1513379E-001	-2.1534476E-001	-2.137989407869828E-003	2.000000000000000E+000	-5.0740709E-005	4.6040481E-007
2	0	0	0	1	3.627215908368817E+002	-2.1847250E-001	-2.1866849E-001	-2.160061092056090E-003	2.000000000000000E+000	-5.0813025E-005	4.7233729E-007
2	0	0	1	1	3.627548908360404E+002	-2.2180679E-001	-2.2202238E-001	-2.185772245974764E-003	2.000000000000000E+000	-5.0885919E-005	4.8529034E-007
2	0	0	1	1	3.627881908351992E+002	-2.2513662E-001	-2.2534469E-001	-2.211092833334712E-003	2.000000000000000E+000	-5.0959672E-005	4.9825803E-007
2	0	0	0	1	3.628215908343554E+002	-2.2847535E-001	-2.2868526E-001	-2.237130398676122E-003	2.000000000000000E+000	-5.1034491E-005	5.1159873E-007
2	0	0	0	1	3.628547908335167E+002	-2.3179409E-001	-2.3201390E-001	-2.265786197291432E-003	2.000000000000000E+000	-5.1109771E-005	5.2569391E-007
2	0	0	1	1	3.628881908326730E+002	-2.3513281E-001	-2.3532324E-001	-2.293951239946711E-003	2.000000000000000E+000	-5.1186449E-005	5.3982001E-007
2	0	0	0	1	3.629214908318318E+002	-2.3846488E-001	-2.3866130E-001	-2.325841946684427E-003	2.000000000000000E+000	-5.1263902E-005	5.5508849E-007
2	0	0	0	1	3.629547908309905E+002	-2.4179694E-001	-2.4199034E-001	-2.358660715552893E-003	2.000000000000000E+000	-5.1342438E-005	5.7077312E-007
2	0	0	1	1	3.629881908301468E+002	-2.4513566E-001	-2.4533433E-001	-2.392687445430461E-003	2.000000000000000E+000	-5.1422325E-005	5.8700834E-007
2	0	0	1	1	3.630213908293081E+002	-2.4845439E-001	-2.4865955E-001	-2.427051561723972E-003	2.000000000000000E+000	-5.1502870E-005	6.0350953E-007
2	0	0	0	1	3.630547908284643E+002	-2.5179315E-001	-2.5200424E-001	-2.462834096114858E-003	2.000000000000000E+000	-5.1585073E-005	6.2064464E-007
2	0	0	1	1	3.630880908276231E+002	-2.5512519E-001	-2.5531101E-001	-2.499407970803884E-003	2.000000000000000E+000	-5.1668241E-005	6.3812638E-007
2	0	0	1	1	3.631213908267819E+002	-2.5845727E-001	-2.5865465E-001	-2.539167892871231E-003	2.000000000000000E+000	-5.1752690E-005	6.5676761E-007
2	0	0	0	1	3.631547908259381E+002	-2.6179603E-001	-2.6197690E-001	-2.577721819451890E-003	2.000000000000000E+000	-5.1838684E-005	6.7530357E-007
2	0	0	0	1	3.631879908250994E+002	-2.6511472E-001	-2.6530120E-001	-2.619709367394941E-003	2.000000000000000E+000	-5.1925512E-005	6.9501203E-007
2	0	0	1	1	3.632213908242557E+002	-2.6845345E-001	-2.6866257E-001	-2.661514844221530E-003	2.000000000000000E+000	-5.2014260E-005	7.1504940E-007
2	0	0	0	1	3.632546908234144E+002	-2.7178326E-001	-2.7199522E-001	-2.702250778427444E-003	2.000000000000000E+000	-5.2104118E-005	7.3499928E-007
2	0	0	0	1	3.632879908225732E+002	-2.7511758E-001	-2.7529830E-001	-2.745994517274621E-003	2.000000000000000E+000	-5.2195395E-005	7.5596762E-007
2	0	0	1	1	3.633213908217294E+002	-2.7845630E-001	-2.7863416E-001	-2.788970147893345E-003	2.000000000000000E+000	-5.2288375E-005	7.7710234E-007
2	0	0	1	1	3.633545908208907E+002	-2.8177503E-001	-2.8194535E-001	-2.833394335299362E-003	2.000000000000000E+000	-5.2382256E-005	7.9886235E-007
2	0	0	0	1	3.633879908200470E+002	-2.8511375E-001	-2.8529277E-001	-2.879015298434130E-003	2.000000000000000E+000	-5.2478208E-005	8.2136228E-007
2	0	0	1	1	3.634213908192032E+002	-2.8845251E-001	-2.8862146E-001	-2.924231079566558E-003	2.000000000000000E+000	-5.2575670E-005	8.4399585E-007
2	0	0	1	1	3.634545908183645E+002	-2.9177791E-001	-2.9198131E-001	-2.970419268213259E-003	2.000000000000000E+000	-5.2674070E-005	8.6730688E-007
2	0	0	0	1	3.634879908175208E+002	-2.9511663E-001	-2.9531163E-001	-3.017029129809501E-003	2.000000000000000E+000	-5.2774601E-005	8.9096380E-007
2	0	0	0	1	3.635211908166821E+002	-2.9843536E-001	-2.9863337E-001	-3.064865984391273E-003	2.000000000000000E+000	-5.2876108E-005	9.1527124E-007
2	0	0	1	1	3.635545908158383E+002	-3.0177411E-001	-3.0199194E-001	-3.109720424782358E-003	2.000000000000000E+000	-5.2979773E-005	9.3911052E-007
2	0	0	0	1	3.635879908149946E+002	-3.0511284E-001	-3.0531281E-001	-3.157641480512985E-003	2.000000000000000E+000	-5.3084987E-005	9.6406836E-007
2	0	0	0	1	3.636211908141559E+002	-3.0843598E-001	-3.0867502E-001	-3.205915740885162E-003	2.000000000000000E+000	-5.3191168E-005	9.8958606E-007
2	0	0	1	1	3.636545908133121E+002	-3.1177697E-001	-3.1201443E-001	-3.253584293378044E-003	2.000000000000000E+000	-5.3299591E-005	1.0151653E-006
2	0	0	1	1	3.636877908124734E+002	-3.1509569E-001	-3.1530973E-001	-3.300918504392035E-003	2.000000000000000E+000	-5.3408938E-005	1.0408118E-006
2	0	0	0	1	3.637211908116296E+002	-3.1843439E-001	-3.1866494E-001	-3.348967645460658E-003	2.000000000000000E+000	-5.3520555E-005	1.0671986E-006
2	0	0	1	1	3.637545908107859E+002	-3.2177314E-001	-3.2198772E-001	-3.397180611743038E-003	2.000000000000000E+000	-5.3633772E-005	1.0938504E-006
2	0	0	1	1	3.637877908099472E+002	-3.2509407E-001	-3.2528919E-001	-3.445424132514735E-003	2.000000000000000E+000	-5.3747921E-005	1.1207592E-006
2	0	0	0	1	3.638211908091034E+002	-3.2843724E-001	-3.2866260E-001	-3.496267443126151E-003	2.000000000000000E+000	-5.3864402E-005	1.1490923E-006
2	0	0	0	1	3.638543908082647E+002	-3.3175597E-001	-3.3196855E-001	-3.544425719295821E-003	2.000000000000000E+000	-5.3981832E-005	1.1766379E-006
2	0	0	1	1	3.638877908074210E+002	-3.3509472E-001	-3.3531466E-001	-3.594600078267153E-003	2.000000000000000E+000	-5.4101609E-005	1.2053221E-006
2	0	0	0	1	3.639211908065772E+002	-3.3843347E-001	-3.3866009E-001	-3.644329471555656E-003	2.000000000000000E+000	-5.4223045E-005	1.2341890E-006
2	0	0	0	1	3.639543908057385E+002	-3.4175438E-001	-3.4200388E-001	-3.694553882448454E-003	2.000000000000000E+000	-5.4345426E-005	1.2635518E-006
2	0	0	1	1	3.639877908048948E+002	-3.4509757E-001	-3.4535110E-001	-3.744377153392028E-003	2.000000000000000E+000	-5.4470216E-005	1.2931248E-006
2	0	0	1	1	3.640209908040561E+002	-3.4841633E-001	-3.4865636E-001	-3.794151451740474E-003	2.000000000000000E+000	-5.4595905E-005	1.3228550E-006
2	0	0	0	1	3.640543908032123E+002	-3.5175505E-001	-3.5201484E-001	-3.845500089858738E-003	2.000000000000000E+000	-5.4724052E-005	1.3536730E-006
2	0	0	1	1	3.640877908023685E+002	-3.5509375E-001	-3.5533249E-001	-3.895216895713632E-003	2.000000000000000E+000	-5.4853885E-005	1.3840971E-006
2	0	0	1	1	3.641209908015298E+002	-3.5841247E-001	-3.5866392E-001	-3.946380279888181E-003	2.000000000000000E+000	-5.4984612E-005	1.4154242E-006
2	0	0	0	1	3.641543908006861E+002	-3.6175790E-001	-3.6198866E-001	-3.997011661585587E-003	2.000000000000000E+000	-5.5117827E-005	1.4468729E-006
2	0	0	0	1	3.641875907998474E+002	-3.6507663E-001	-3.6529648E-001	-4.048893331319386E-003	2.000000000000000E+000	-5.5251952E-005	1.4790465E-006
2	0	0	1	1	3.642209907990036E+002	-3.6841533E-001	-3.6864105E-001	-4.100539150121790E-003	2.000000000000000E+000	-5.5388602E-005	1.5116270E-006
2	0	0	0	1	3.642543907981599E+002	-3.7175405E-001	-3.7199023E-001	-4.153866768486923E-003	2.000000000000000E+000	-5.5527009E-005	1.5451978E-006
2	0	0	0	1	3.642875907973212E+002	-3.7507281E-001	-3.7529263E-001	-4.205736569689422E-003	2.000000000000000E+000	-5.5666340E-005	1.5783819E-006
2	0	0	1	1	3.643209907964774E+002	-3.7841597E-001	-3.7862912E-001	-4.260103277057933E-003	2.000000000000000E+000	-5.5808279E-005	1.6129992E-006
2	0	0	1	1	3.643541907956387E+002	-3.8173693E-001	-3.8198373E-001	-4.315723943054073E-003	2.000000000000000E+000	-5.5951197E-005	1.6485363E-006
2	0	0	0	1	3.643875907947950E+002	-3.8507566E-001	-3.8532886E-001	-4.370490371414543E-003	2.000000000000000E+000	-5.6096826E-005	1.6840761E-006
2	0	0	1	1	3.644209907939512E+002	-3.8841435E-001	-3.8865057E-001	-4.424447229318538E-003	2.000000000000000E+000	-5.6244258E-005	1.7195639E-006
2	0	0	1	1	3.644541907931125E+002	-3.9173311E-001	-3.9198184E-001	-4.480516821991076E-003	2.000000000000000E+000	-5.6392648E-005	1.7562812E-006
2	0	0	0	1	3.644875907922687E+002	-3.9507407E-001	-3.9532405E-001	-4.537732587395343E-003	2.000000000000000E+000	-5.6543828E-005	1.7938748E-006
2	0	0	0	1	3.645207907914300E+002	-3.9839724E-001	-3.9864966E-001	-4.595315167869034E-003	2.000000000000000E+000	-5.6696004E-005	1.8319208E-006
2	0	0	1	1	3.645541907905863E+002	-4.0173593E-001	-4.0198040E-001	-4.652488230834362E-003	2.000000000000000E+000	-5.6851008E-005	1.8702091E-006
2	0	0	0	1	3.645875907897425E+002	-4.0507472E-001	-4.0531120E-001	-4.711519812451458E-003	2.000000000000000E+000	-5.7007954E-005	1.9096317E-006
2	0	0	0	1	3.646207907889038E+002	-4.0839347E-001	-4.0861827E-001	-4.771230828062287E-003	2.000000000000000E+000	-5.7165922E-005	1.9496122E-006
2	0	0	1	1	3.646541907880601E+002	-4.1173217E-001	-4.1196063E-001	-4.831234759498065E-003	2.000000000000000E+000	-5.7326852E-005	1.9902786E-006
2	0	0	1	1	3.646873907872214E+002	-4.1505754E-001	-4.1528955E-001	-4.893964642111249E-003	2.000000000000000E+000	-5.7488858E-005	2.0324123E-006
2	0	0	0	1	3.647207907863776E+002	-4.1839623E-001	-4.1864246E-001	-4.955731687013076E-003	2.000000000000000E+000	-5.7653921E-005	2.0746797E-006
2	0	0	1	1	3.647541907855339E+002	-4.2173502E-001	-4.2196858E-001	-5.018341672699447E-003	2.000000000000000E+000	-5.7821053E-005	2.1175824E-006
2	0	0	1	1	3.647873907846952E+002	-4.2505375E-001	-4.2529199E-001	-5.082377323695389E-003	2.000000000000000E+000	-5.7989295E-005	2.1614944E-006
2	0	0	0	1	3.648207907838514E+002	-4.2839247E-001	-4.2861694E-001	-5.146391290073979E-003	2.000000000000000E+000	-5.8160684E-005	2.2058305E-006
2	0	0	1	1	3.648540907830102E+002	-4.3172678E-001	-4.3194342E-001	-5.211780914707975E-003	2.000000000000000E+000	-5.8333724E-005	2.2511945E-006
2	0	0	1	1	3.648873907821690E+002	-4.3505666E-001	-4.3527213E-001	-5.280458191043197E-003	2.000000000000000E+000	-5.8509006E-005	2.2984364E-006
2	0	0	0	1	3.649207907813252E+002	-4.3839538E-001	-4.3863234E-001	-5.348167557288758E-003	2.000000000000000E+000	-5.8687074E-005	2.3458792E-006
2	0	0	0	1	3.649539907804865E+002	-4.4171411E-001	-4.4193706E-001	-5.415206477046020E-003	2.000000000000000E+000	-5.8866317E-005	2.3931805E-006
2	0	0	1	1	3.649873907796427E+002	-4.4505277E-001	-4.4528151E-001	-5.486809529452477E-003	2.000000000000000E+000	-5.9048951E-005	2.4431747E-006
2	0	0	0	1	3.650206907788015E+002	-4.4838709E-001	-4.4861513E-001	-5.555685088618305E-003	2.000000000000000E+000	-5.9233364E-005	2.4923645E-006
2	0	0	0	1	3.650539907779603E+002	-4.5171693E-001	-4.5192963E-001	-5.627458414571643E-003	2.000000000000000E+000	-5.9420137E-005	2.5432153E-006
2	0	0	1	1	3.650873907771165E+002	-4.5505565E-001	-4.5527351E-001	-5.700304281641311E-003	2.000000000000000E+000	-5.9609883E-005	2.5951974E-006
2	0	0	1	1	3.651205907762778E+002	-4.5837438E-001	-4.5860693E-001	-5.775178319599932E-003	2.000000000000000E+000	-5.9800957E-005	2.6485368E-006
2	0	0	0	1	3.651539907754341E+002	-4.6171311E-001	-4.6192682E-001	-5.849682090424538E-003	2.000000000000000E+000	-5.9995662E-005	2.7021251E-006
2	0	0	1	1	3.651872907745928E+002	-4.6504518E-001	-4.6525833E-001	-5.924866655590569E-003	2.000000000000000E+000	-6.0192280E-005	2.7565936E-006
2	0	0	1	1	3.652205907737516E+002	-4.6837726E-001	-4.6861058E-001	-6.004095371678911E-003	2.000000000000000E+000	-6.0391485E-005	2.8135826E-006
2	0	0	0	1	3.652539907729079E+002	-4.7171596E-001	-4.7196230E-001	-6.079053699881848E-003	2.000000000000000E+000	-6.0593859E-005	2.8690843E-006
2	0	0	0	1	3.652871907720692E+002	-4.7503471E-001	-4.7528020E-001	-6.157760780985871E-003	2.000000000000000E+000	-6.0797574E-005	2.9266616E-006
2	0	0	1	1	3.653205907712254E+002	-4.7837344E-001	-4.7862276E-001	-6.237851545727750E-003	2.000000000000000E+000	-6.1005157E-005	2.9855778E-006
2	0	0	0	1	3.653538907703842E+002	-4.8170322E-001	-4.8196346E-001	-6.319198713255123E-003	2.000000000000000E+000	-6.1214814E-005	3.0456229E-006
2	0	0	0	1	3.653871907695429E+002	-4.8503754E-001	-4.8529667E-001	-6.399304835196962E-003	2.000000000000000E+000	-6.1427178E-005	3.1055613E-006
2	0	0	1	1	3.654205907686992E+002	-4.8837629E-001	-4.8863745E-001	-6.482537768649661E-003	2.000000000000000E+000	-6.1642873E-005	3.1676107E-006
2	0	0	1	1	3.654537907678605E+002	-4.9169505E-001	-4.9193099E-001	-6.563549418513299E-003	2.000000000000000E+000	-6.1860024E-005	3.2288133E-006
2	0	0	0	1	3.654871907670167E+002	-4.9503377E-001	-4.9528021E-001	-6.648282651752851E-003	2.000000000000000E+000	-6.2081250E-005	3.2927628E-006
2	0	0	1	1	3.655205907661730E+002	-4.9837250E-001	-4.9861199E-001	-6.733944416789900E-003	2.000000000000000E+000	-6.2305313E-005	3.3576255E-006
2	0	0	1	1	3.655537907653343E+002	-5.0169784E-001	-5.0193894E-001	-6.821935420308275E-003	2.000000000000000E+000	-6.2530926E-005	3.4241950E-006
2	0	0	0	1	3.655871907644905E+002	-5.0503659E-001	-5.0527871E-001	-6.909031448885782E-003	2.000000000000000E+000	-6.2760817E-005	3.4909865E-006
2	0	0	0	1	3.656203907636518E+002	-5.0835532E-001	-5.0861448E-001	-6.996107517129341E-003	2.000000000000000E+000	-6.2992214E-005	3.5583216E-006
2	0	0	1	1	3.656537907628081E+002	-5.1169407E-001	-5.1194417E-001	-7.086694016675388E-003	2.000000000000000E+000	-6.3227999E-005	3.6279916E-006
2	0	0	0	1	3.656871907619643E+002	-5.1503283E-001	-5.1527733E-001	-7.175628837732678E-003	2.000000000000000E+000	-6.3466767E-005	3.6974388E-006
2	0	0	0	1	3.657203907611256E+002	-5.1835597E-001	-5.1859635E-001	-7.265632244741110E-003	2.000000000000000E+000	-6.3707077E-005	3.7679304E-006
2	0	0	1	1	3.657537907602818E+002	-5.2169693E-001	-5.2194065E-001	-7.359225690522213E-003	2.000000000000000E+000	-6.3951913E-005	3.8410790E-006
2	0	0	1	1	3.657869907594431E+002	-5.2501565E-001	-5.2526325E-001	-7.451430195425102E-003	2.000000000000000E+000	-6.4198372E-005	3.9139622E-006
2	0	0	0	1	3.658203907585994E+002	-5.2835441E-001	-5.2859169E-001	-7.544593328978687E-003	2.000000000000000E+000	-6.4449414E-005	3.9880092E-006
2	0	0	1	1	3.658537907577556E+002	-5.3169310E-001	-5.3193438E-001	-7.639421976184356E-003	2.000000000000000E+000	-6.4703585E-005	4.0636710E-006
2	0	0	1	1	3.658869907569169E+002	-5.3501403E-001	-5.3523105E-001	-7.734648964844271E-003	2.000000000000000E+000	-6.4959386E-005	4.1398243E-006
2	0	0	0	1	3.659203907560732E+002	-5.3835732E-001	-5.3858936E-001	-7.830794122483969E-003	2.000000000000000E+000	-6.5219916E-005	4.2175825E-006
2	0	0	0	1	3.659535907552345E+002	-5.4167598E-001	-5.4192829E-001	-7.928314518724562E-003	2.000000000000000E+000	-6.5482091E-005	4.2965780E-006
2	0	0	1	1	3.659869907543907E+002	-5.4501474E-001	-5.4525691E-001	-8.024335836957162E-003	2.000000000000000E+000	-6.5749111E-005	4.3753248E-006
2	0	0	0	1	3.660203907535470E+002	-5.4835343E-001	-5.4858369E-001	-8.125744987800915E-003	2.000000000000000E+000	-6.6019442E-005	4.4576514E-006
2	0	0	0	1	3.660535907527083E+002	-5.5167443E-001	-5.5191469E-001	-8.223203105832619E-003	2.000000000000000E+000	-6.6291446E-005	4.5385068E-006
2	0	0	1	1	3.660869907518645E+002	-5.5501753E-001	-5.5528659E-001	-8.326034874857946E-003	2.000000000000000E+000	-6.6568442E-005	4.6233354E-006
2	0	0	1	1	3.661201907510258E+002	-5.5833626E-001	-5.5859011E-001	-8.426046566531092E-003	2.000000000000000E+000	-6.6847133E-005	4.7067065E-006
2	0	0	0	1	3.661535907501820E+002	-5.6167501E-001	-5.6193542E-001	-8.528668114880983E-003	2.000000000000000E+000	-6.7130874E-005	4.7925610E-006
2	0	0	1	1	3.661869907493383E+002	-5.6501371E-001	-5.6527656E-001	-8.634250697505182E-003	2.000000000000000E+000	-6.7418092E-005	4.8807397E-006
2	0	0	1	1	3.662201907484996E+002	-5.6833249E-001	-5.6860900E-001	-8.736596256257376E-003	2.000000000000000E+000	-6.7707042E-005	4.9677074E-006
2	0	0	0	1	3.662535907476558E+002	-5.7167786E-001	-5.7192606E-001	-8.844477291514302E-003	2.000000000000000E+000	-6.8001238E-005	5.0583872E-006
2	0	0	0	1	3.662867907468171E+002	-5.7499659E-001	-5.7525551E-001	-8.946196722121103E-003	2.000000000000000E+000	-6.8297166E-005	5.1463489E-006
2	0	0	1	1	3.663201907459734E+002	-5.7833529E-001	-5.7858998E-001	-9.052875994928794E-003	2.000000000000000E+000	-6.8598361E-005	5.2379032E-006
2	0	0	0	1	3.663535907451296E+002	-5.8167404E-001	-5.8190536E-001	-9.162216827282021E-003	2.000000000000000E+000	-6.8903166E-005	5.3315430E-006
2	0	0	0	1	3.663867907442909E+002	-5.8499277E-001	-5.8524233E-001	-9.274211332829269E-003	2.000000000000000E+000	-6.9209804E-005	5.4276611E-006
2	0	0	1	1	3.664201907434472E+002	-5.8833593E-001	-5.8860838E-001	-9.384049033267484E-003	2.000000000000000E+000	-6.9522015E-005	5.5235300E-006
2	0	0	1	1	3.664533907426085E+002	-5.9165692E-001	-5.9192729E-001	-9.493254286870909E-003	2.000000000000000E+000	-6.9835987E-005	5.6193162E-006
2	0	0	0	1	3.664867907417647E+002	-5.9499562E-001	-5.9525555E-001	-9.606938555349442E-003	2.000000000000000E+000	-7.0155562E-005	5.7185835E-006
2	0	0	1	1	3.665184907409639E+002	-5.9816480E-001	-5.9842128E-001	-9.710150695226537E-003	2.000000000000000E+000	-7.0462229E-005	5.8107607E-006
2	0	0	1	1	3.665351907405420E+002	-5.9982693E-001	-6.0005033E-001	-9.763081558048725E-003	2.000000000000000E+000	-7.0624854E-005	5.8583405E-006