EC-Lab ASCII FILE
Nb header lines : 53                          

Cyclic Voltammetry

Run on channel : 1 (SN 0696)
User : 
Electrode connection : standard
Ewe ctrl range : min = -10.00 V, max = 10.00 V
Ewe,I filtering : 50 kHz
Channel : Grounded
Acquisition started on : 05/17/2017 12:53:20
Saved on :
	File : 100 uM RS 10mM PB_08_CV_C01.mpr
	Directory : \\userfs\st659\w2k\EC-Lab\Data\ITO Characterisation 17-5-17\
	Host : 144.32.136.43
Device : SP-300 (SN 0182)
Address : USB
EC-Lab for windows v10.44 (software)
Internet server v10.44 (firmware)
Command interpretor v10.44 (firmware)
Electrode material : 
Initial state : 
Electrolyte : 
Comments : 
Cable : standard
Electrode surface area : 0.001 cm²
Characteristic mass : 0.001 g
Equivalent Weight : 0.000 g/eq.
Density : 0.000 g/cm3
Ei (V)              0.000               
vs.                 Eoc                 
dE/dt               5000.000            
dE/dt unit          mV/s                
E1 (V)              0.100               
vs.                 Ref                 
Step percent        50                  
N                   10                  
E range min (V)     -10.000             
E range max (V)     10.000              
I Range             Auto                
I Range min         Unset               
I Range max         Unset               
I Range init        Unset               
Bandwidth           8                   
E2 (V)              -0.600              
vs.                 Ref                 
nc cycles           2                   
Reverse Scan        1                   
Ef (V)              0.000               
vs.                 Eoc                 

mode	ox/red	error	control changes	counter inc.	time/s	control/V	Ewe/V	<I>/mA	cycle number	(Q-Qo)/C	P/W
2	1	0	0	1	4.278249891922314E+002	-5.9949374E-001	-5.9978324E-001	-2.448456361889839E-002	2.000000000000000E+000	-2.2530123E-006	1.4685431E-005
2	1	0	1	1	4.278260891922037E+002	-5.9399599E-001	-5.9428453E-001	-2.261564151679824E-002	2.000000000000000E+000	-2.2780462E-006	1.3440126E-005
2	1	0	1	1	4.278280891921531E+002	-5.8399981E-001	-5.8428985E-001	-1.965534476726638E-002	2.000000000000000E+000	-2.3200005E-006	1.1484419E-005
2	1	0	1	1	4.278300891921026E+002	-5.7400364E-001	-5.7428157E-001	-1.714456963398137E-002	2.000000000000000E+000	-2.3565378E-006	9.8458104E-006
2	1	0	1	1	4.278320891920521E+002	-5.6400740E-001	-5.6429839E-001	-1.496209343288982E-002	2.000000000000000E+000	-2.3884165E-006	8.4430849E-006
2	1	0	1	1	4.278340891920016E+002	-5.5401123E-001	-5.5428565E-001	-1.302621582079963E-002	2.000000000000000E+000	-2.4162032E-006	7.2202442E-006
2	1	0	1	1	4.278360891919510E+002	-5.4401511E-001	-5.4426956E-001	-1.130360287303726E-002	2.000000000000000E+000	-2.4403532E-006	6.1522069E-006
2	1	0	1	1	4.278380891919005E+002	-5.3401887E-001	-5.3427398E-001	-9.753975470933540E-003	2.000000000000000E+000	-2.4612509E-006	5.2112955E-006
2	1	0	1	1	4.278400891918500E+002	-5.2402264E-001	-5.2429038E-001	-8.356102900506798E-003	2.000000000000000E+000	-2.4792173E-006	4.3810246E-006
2	1	0	1	1	4.278420891917995E+002	-5.1402652E-001	-5.1428777E-001	-7.075151457481997E-003	2.000000000000000E+000	-2.4945166E-006	3.6386639E-006
2	1	0	1	1	4.278440891917489E+002	-5.0403029E-001	-5.0431371E-001	-5.908216818473487E-003	2.000000000000000E+000	-2.5073798E-006	2.9795947E-006
2	1	0	1	1	4.278460891916984E+002	-4.9403411E-001	-4.9430838E-001	-4.832394122078962E-003	2.000000000000000E+000	-2.5180098E-006	2.3886930E-006
2	1	0	1	1	4.278480891916479E+002	-4.8403791E-001	-4.8431116E-001	-3.848764298204004E-003	2.000000000000000E+000	-2.5265899E-006	1.8639995E-006
2	1	0	1	1	4.278500891915974E+002	-4.7404170E-001	-4.7432071E-001	-2.940291508770725E-003	2.000000000000000E+000	-2.5332861E-006	1.3946411E-006
2	1	0	1	1	4.278520891915468E+002	-4.6404552E-001	-4.6428299E-001	-2.093732600693930E-003	2.000000000000000E+000	-2.5382335E-006	9.7208442E-007
2	1	0	1	1	4.278540891914963E+002	-4.5404932E-001	-4.5430464E-001	-1.311545410430881E-003	2.000000000000000E+000	-2.5415586E-006	5.9584119E-007
2	1	0	1	1	4.278560891914458E+002	-4.4405314E-001	-4.4431332E-001	-5.903185506023582E-004	2.000000000000000E+000	-2.5433860E-006	2.6228639E-007
2	1	0	1	1	4.278580891913953E+002	-4.3405700E-001	-4.3429744E-001	8.958992400959795E-005	2.000000000000000E+000	-2.5438176E-006	3.8908674E-008
2	1	0	1	1	4.278600891913447E+002	-4.2406079E-001	-4.2431802E-001	7.195773480172356E-004	2.000000000000000E+000	-2.5429442E-006	3.0532962E-007
2	1	0	1	1	4.278620891912942E+002	-4.1406459E-001	-4.1432333E-001	1.307653133860892E-003	2.000000000000000E+000	-2.5408583E-006	5.4179122E-007
2	1	0	1	1	4.278640891912437E+002	-4.0406841E-001	-4.0432632E-001	1.859814022004178E-003	2.000000000000000E+000	-2.5376337E-006	7.5197175E-007
2	1	0	1	1	4.278660891911932E+002	-3.9407218E-001	-3.9435539E-001	2.378432623244303E-003	2.000000000000000E+000	-2.5333427E-006	9.3794773E-007
2	1	0	1	1	4.278680891911426E+002	-3.8407600E-001	-3.8434711E-001	2.870480585897894E-003	2.000000000000000E+000	-2.5280433E-006	1.1032610E-006
2	1	0	1	1	4.278700891910921E+002	-3.7407985E-001	-3.7434590E-001	3.332355543989257E-003	2.000000000000000E+000	-2.5217919E-006	1.2474536E-006
2	1	0	1	1	4.278720891910416E+002	-3.6408362E-001	-3.6433908E-001	3.771855248588620E-003	2.000000000000000E+000	-2.5146437E-006	1.3742343E-006
2	1	0	1	1	4.278740891909911E+002	-3.5408747E-001	-3.5436499E-001	4.183469759835953E-003	2.000000000000000E+000	-2.5066472E-006	1.4824752E-006
2	1	0	1	1	4.278760891909405E+002	-3.4409127E-001	-3.4435946E-001	4.575125214917847E-003	2.000000000000000E+000	-2.4978476E-006	1.5754877E-006
2	1	0	1	1	4.278780891908900E+002	-3.3409506E-001	-3.3433279E-001	4.956969470893243E-003	2.000000000000000E+000	-2.4882770E-006	1.6572775E-006
2	1	0	1	1	4.278800891908395E+002	-3.2409891E-001	-3.2430840E-001	5.321905416369385E-003	2.000000000000000E+000	-2.4779604E-006	1.7259387E-006
2	1	0	1	1	4.278820891907890E+002	-3.1410268E-001	-3.1435466E-001	5.663236801006458E-003	2.000000000000000E+000	-2.4669407E-006	1.7802648E-006
2	1	0	1	1	4.278840891907385E+002	-3.0410650E-001	-3.0433476E-001	6.000923895246370E-003	2.000000000000000E+000	-2.4552426E-006	1.8262897E-006
2	1	0	1	1	4.278860891906879E+002	-2.9411033E-001	-2.9431650E-001	6.330940832109864E-003	2.000000000000000E+000	-2.4428784E-006	1.8633003E-006
2	1	0	1	1	4.278880891906374E+002	-2.8411412E-001	-2.8431889E-001	6.651125718942955E-003	2.000000000000000E+000	-2.4298643E-006	1.8910407E-006
2	1	0	1	1	4.278900891905869E+002	-2.7411792E-001	-2.7432758E-001	6.959042169506185E-003	2.000000000000000E+000	-2.4162232E-006	1.9090571E-006
2	1	0	1	1	4.278920891905364E+002	-2.6412174E-001	-2.6435429E-001	7.266238731265029E-003	2.000000000000000E+000	-2.4019682E-006	1.9208615E-006
2	1	0	1	1	4.278940891904858E+002	-2.5412557E-001	-2.5434244E-001	7.566951364424312E-003	2.000000000000000E+000	-2.3871035E-006	1.9245967E-006
2	1	0	1	1	4.278960891904353E+002	-2.4412936E-001	-2.4436514E-001	7.870396558852622E-003	2.000000000000000E+000	-2.3716373E-006	1.9232505E-006
2	1	0	1	1	4.278980891903848E+002	-2.3413317E-001	-2.3436745E-001	8.175982294030992E-003	2.000000000000000E+000	-2.3555588E-006	1.9161841E-006
2	1	0	1	1	4.279000891903343E+002	-2.2413701E-001	-2.2438549E-001	8.479534153088414E-003	2.000000000000000E+000	-2.3388716E-006	1.9026844E-006
2	1	0	1	1	4.279020891902837E+002	-2.1414082E-001	-2.1439187E-001	8.791730606794279E-003	2.000000000000000E+000	-2.3215687E-006	1.8848756E-006
2	1	0	1	1	4.279040891902332E+002	-2.0414461E-001	-2.0437069E-001	9.101555239188486E-003	2.000000000000000E+000	-2.3036462E-006	1.8600912E-006
2	1	0	1	1	4.279060891901827E+002	-1.9414844E-001	-1.9436942E-001	9.413878616821109E-003	2.000000000000000E+000	-2.2850995E-006	1.8297701E-006
2	1	0	1	1	4.279080891901322E+002	-1.8415225E-001	-1.8440084E-001	9.720714204377173E-003	2.000000000000000E+000	-2.2659347E-006	1.7925079E-006
2	1	0	1	1	4.279100891900816E+002	-1.7415607E-001	-1.7439428E-001	1.002447752075061E-002	2.000000000000000E+000	-2.2461593E-006	1.7482115E-006
2	1	0	1	1	4.279120891900311E+002	-1.6415986E-001	-1.6439342E-001	1.032133382028003E-002	2.000000000000000E+000	-2.2257834E-006	1.6967595E-006
2	1	0	1	1	4.279140891899806E+002	-1.5416369E-001	-1.5437649E-001	1.060498940447971E-002	2.000000000000000E+000	-2.2048271E-006	1.6371611E-006
2	1	0	1	1	4.279160891899301E+002	-1.4416748E-001	-1.4439368E-001	1.086031498845039E-002	2.000000000000000E+000	-2.1833341E-006	1.5681609E-006
2	1	0	1	1	4.279180891898795E+002	-1.3417129E-001	-1.3439114E-001	1.110862814089666E-002	2.000000000000000E+000	-2.1613405E-006	1.4929012E-006
2	1	0	1	1	4.279200891898290E+002	-1.2417510E-001	-1.2437866E-001	1.133219199861443E-002	2.000000000000000E+000	-2.1388760E-006	1.4094828E-006
2	1	0	1	1	4.279220891897785E+002	-1.1417892E-001	-1.1438057E-001	1.153520176800765E-002	2.000000000000000E+000	-2.1159876E-006	1.3194029E-006
2	1	0	1	1	4.279240891897280E+002	-1.0418274E-001	-1.0439584E-001	1.171685420013091E-002	2.000000000000000E+000	-2.0927159E-006	1.2231909E-006
2	1	0	1	1	4.279260891896774E+002	-9.4186530E-002	-9.4394796E-002	1.187574973765651E-002	2.000000000000000E+000	-2.0691068E-006	1.1210089E-006
2	1	0	1	1	4.279280891896269E+002	-8.4190346E-002	-8.4404565E-002	1.202530010292927E-002	2.000000000000000E+000	-2.0451889E-006	1.0149902E-006
2	1	0	1	1	4.279300891895764E+002	-7.4194163E-002	-7.4420273E-002	1.216841068303942E-002	2.000000000000000E+000	-2.0209809E-006	9.0557643E-007
2	1	0	1	1	4.279320891895259E+002	-6.4197972E-002	-6.4428978E-002	1.229829824034015E-002	2.000000000000000E+000	-1.9964980E-006	7.9236679E-007
2	1	0	1	1	4.279340891894753E+002	-5.4201782E-002	-5.4450184E-002	1.240525945407479E-002	2.000000000000000E+000	-1.9717818E-006	6.7546864E-007
2	1	0	1	1	4.279360891894248E+002	-4.4205595E-002	-4.4434723E-002	1.250575834678280E-002	2.000000000000000E+000	-1.9468621E-006	5.5568989E-007
2	1	0	1	1	4.279380891893743E+002	-3.4209412E-002	-3.4417782E-002	1.259337498332672E-002	2.000000000000000E+000	-1.9217543E-006	4.3343604E-007
2	1	0	1	1	4.279400891893238E+002	-2.4213217E-002	-2.4424789E-002	1.264852967142360E-002	2.000000000000000E+000	-1.8965063E-006	3.0893767E-007
2	1	0	1	1	4.279420891892732E+002	-1.4217027E-002	-1.4440701E-002	1.269993333759584E-002	2.000000000000000E+000	-1.8711519E-006	1.8339594E-007
2	1	0	1	1	4.279440891892227E+002	-4.2208396E-003	-4.4371118E-003	1.273815844251655E-002	2.000000000000000E+000	-1.8457110E-006	5.6520634E-008
2	1	0	1	1	4.279460891891722E+002	5.9419503E-003	5.7489793E-003	1.279549486328811E-002	2.000000000000000E+000	-1.8201745E-006	7.3561033E-008
2	1	0	1	1	4.279480891891217E+002	1.6104737E-002	1.5946725E-002	1.283039305558811E-002	2.000000000000000E+000	-1.7945424E-006	2.0460276E-007
2	1	0	1	1	4.279500891890712E+002	2.6100922E-002	2.5920849E-002	1.282276494243384E-002	2.000000000000000E+000	-1.7688899E-006	3.3237697E-007
2	1	0	1	1	4.279520891890206E+002	3.6097106E-002	3.5918921E-002	1.281365399174522E-002	2.000000000000000E+000	-1.7432541E-006	4.6025264E-007
2	1	0	1	1	4.279540891889701E+002	4.6093289E-002	4.5924842E-002	1.280248741123720E-002	2.000000000000000E+000	-1.7176394E-006	5.8795223E-007
2	1	0	1	1	4.279560891889196E+002	5.6089472E-002	5.5946656E-002	1.278945621945444E-002	2.000000000000000E+000	-1.6920483E-006	7.1552728E-007
2	1	0	1	1	4.279580891888691E+002	6.6085659E-002	6.5916739E-002	1.275826579573433E-002	2.000000000000000E+000	-1.6665030E-006	8.4098326E-007
2	1	0	1	1	4.279600891888185E+002	7.6081835E-002	7.5911857E-002	1.272294437977606E-002	2.000000000000000E+000	-1.6410249E-006	9.6582232E-007
2	1	0	1	1	4.279620891887680E+002	8.6078033E-002	8.5902929E-002	1.269135155618846E-002	2.000000000000000E+000	-1.6156133E-006	1.0902243E-006
2	1	0	1	1	4.279638891887225E+002	9.5074609E-002	9.4892956E-002	1.266469122622643E-002	2.000000000000000E+000	-1.5927922E-006	1.2017900E-006
2	1	0	1	1	4.279647891886998E+002	9.9572904E-002	9.9433050E-002	1.265041623264551E-002	2.000000000000000E+000	-1.5813981E-006	1.2578695E-006
2	1	0	0	1	4.279649891886947E+002	1.0057253E-001	1.0040980E-001	1.264850981533527E-002	2.000000000000000E+000	-1.5788685E-006	1.2700343E-006
2	0	0	1	1	4.279651891886897E+002	9.9572904E-002	9.9471204E-002	1.226253248751163E-002	2.000000000000000E+000	-1.5764159E-006	1.2197688E-006
2	0	0	0	1	4.279662891886619E+002	9.4074965E-002	9.3988642E-002	1.026577665773705E-002	2.000000000000000E+000	-1.5649572E-006	9.6486644E-007
2	0	0	0	1	4.279682891886114E+002	8.4078789E-002	8.3988860E-002	7.274438471843822E-003	2.000000000000000E+000	-1.5477441E-006	6.1097182E-007
2	0	0	0	1	4.279702891885609E+002	7.4082606E-002	7.3996514E-002	4.912917751830198E-003	2.000000000000000E+000	-1.5358094E-006	3.6353879E-007
2	0	0	0	1	4.279722891885103E+002	6.4086422E-002	6.3999288E-002	3.003461808020819E-003	2.000000000000000E+000	-1.5280968E-006	1.9221942E-007
2	0	0	0	1	4.279742891884598E+002	5.4090239E-002	5.4010969E-002	1.432286221150511E-003	2.000000000000000E+000	-1.5238275E-006	7.7359168E-008
2	0	0	0	1	4.279762891884093E+002	4.4094056E-002	4.3983217E-002	1.210765875443436E-004	2.000000000000000E+000	-1.5224119E-006	5.3253379E-009
2	0	0	0	1	4.279782891883588E+002	3.4097869E-002	3.3995740E-002	-9.847917848699391E-004	2.000000000000000E+000	-1.5233926E-006	3.3478727E-008
2	0	0	0	1	4.279802891883082E+002	2.4101686E-002	2.3993641E-002	-1.927209210356929E-003	2.000000000000000E+000	-1.5264042E-006	4.6240768E-008
2	0	0	0	1	4.279822891882577E+002	1.4105500E-002	1.4004681E-002	-2.737196214083169E-003	2.000000000000000E+000	-1.5311535E-006	3.8333560E-008
2	0	0	0	1	4.279842891882072E+002	3.8686674E-003	3.7467354E-003	-3.494465146104631E-003	2.000000000000000E+000	-1.5374571E-006	1.3092836E-008
2	0	0	0	1	4.279862891881567E+002	-6.2200762E-003	-6.3744932E-003	-4.124537514346424E-003	2.000000000000000E+000	-1.5451458E-006	2.6291836E-008
2	0	0	0	1	4.279882891881061E+002	-1.6216265E-002	-1.6361974E-002	-4.669006822192984E-003	2.000000000000000E+000	-1.5539941E-006	7.6394166E-008
2	0	0	0	1	4.279902891880556E+002	-2.6212456E-002	-2.6349455E-002	-5.153638790842609E-003	2.000000000000000E+000	-1.5638661E-006	1.3579557E-007
2	0	0	0	1	4.279922891880051E+002	-3.6208648E-002	-3.6342658E-002	-5.599049676271131E-003	2.000000000000000E+000	-1.5746639E-006	2.0348435E-007
2	0	0	0	1	4.279942891879546E+002	-4.6204835E-002	-4.6357691E-002	-6.011406554737017E-003	2.000000000000000E+000	-1.5863175E-006	2.7867492E-007
2	0	0	0	1	4.279962891879040E+002	-5.6201022E-002	-5.6376755E-002	-6.393251064057252E-003	2.000000000000000E+000	-1.5987612E-006	3.6043076E-007
2	0	0	0	1	4.279982891878535E+002	-6.6197209E-002	-6.6341557E-002	-6.739858744872942E-003	2.000000000000000E+000	-1.6119309E-006	4.4713272E-007
2	0	0	0	1	4.280002891878030E+002	-7.6193392E-002	-7.6346204E-002	-7.081910556937326E-003	2.000000000000000E+000	-1.6257869E-006	5.4067698E-007
2	0	0	0	1	4.280022891877525E+002	-8.6189590E-002	-8.6329021E-002	-7.391162093376272E-003	2.000000000000000E+000	-1.6402918E-006	6.3807181E-007
2	0	0	0	1	4.280042891877019E+002	-9.6185774E-002	-9.6328147E-002	-7.690857455195849E-003	2.000000000000000E+000	-1.6554044E-006	7.4084602E-007
2	0	0	0	1	4.280062891876514E+002	-1.0618196E-001	-1.0632941E-001	-7.981887156448549E-003	2.000000000000000E+000	-1.6711069E-006	8.4870936E-007
2	0	0	0	1	4.280082891876009E+002	-1.1617815E-001	-1.1630735E-001	-8.263105325669221E-003	2.000000000000000E+000	-1.6873801E-006	9.6105987E-007
2	0	0	0	1	4.280102891875504E+002	-1.2617435E-001	-1.2633300E-001	-8.538602972294015E-003	2.000000000000000E+000	-1.7042097E-006	1.0787073E-006
2	0	0	0	1	4.280122891874998E+002	-1.3617054E-001	-1.3631687E-001	-8.803612127950250E-003	2.000000000000000E+000	-1.7215790E-006	1.2000808E-006
2	0	0	0	1	4.280142891874493E+002	-1.4616671E-001	-1.4633106E-001	-9.068705964030727E-003	2.000000000000000E+000	-1.7394774E-006	1.3270334E-006
2	0	0	0	1	4.280162891873988E+002	-1.5616292E-001	-1.5631495E-001	-9.324138403523335E-003	2.000000000000000E+000	-1.7578969E-006	1.4575023E-006
2	0	0	0	1	4.280182891873483E+002	-1.6615911E-001	-1.6630560E-001	-9.582324424526500E-003	2.000000000000000E+000	-1.7768292E-006	1.5935942E-006
2	0	0	0	1	4.280202891872977E+002	-1.7615528E-001	-1.7632191E-001	-9.839091277980438E-003	2.000000000000000E+000	-1.7962770E-006	1.7348474E-006
2	0	0	0	1	4.280222891872472E+002	-1.8615147E-001	-1.8630813E-001	-1.009666321341582E-002	2.000000000000000E+000	-1.8162382E-006	1.8810905E-006
2	0	0	0	1	4.280242891871967E+002	-1.9614768E-001	-1.9631062E-001	-1.034789943453990E-002	2.000000000000000E+000	-1.8367078E-006	2.0314026E-006
2	0	0	0	1	4.280262891871462E+002	-2.0614386E-001	-2.0628351E-001	-1.060286552334823E-002	2.000000000000000E+000	-1.8576841E-006	2.1871963E-006
2	0	0	0	1	4.280282891870957E+002	-2.1614005E-001	-2.1629789E-001	-1.086312832517758E-002	2.000000000000000E+000	-1.8791749E-006	2.3496718E-006
2	0	0	0	1	4.280302891870451E+002	-2.2613624E-001	-2.2631970E-001	-1.112576418866715E-002	2.000000000000000E+000	-1.9011898E-006	2.5179795E-006
2	0	0	0	1	4.280322891869946E+002	-2.3613241E-001	-2.3629661E-001	-1.139268120965023E-002	2.000000000000000E+000	-1.9237350E-006	2.6920520E-006
2	0	0	0	1	4.280342891869441E+002	-2.4612860E-001	-2.4630868E-001	-1.166050838684085E-002	2.000000000000000E+000	-1.9468137E-006	2.8720845E-006
2	0	0	0	1	4.280362891868936E+002	-2.5612479E-001	-2.5627941E-001	-1.193022076646837E-002	2.000000000000000E+000	-1.9704323E-006	3.0574699E-006
2	0	0	0	1	4.280382891868430E+002	-2.6612100E-001	-2.6627004E-001	-1.221285931751483E-002	2.000000000000000E+000	-1.9946012E-006	3.2519185E-006
2	0	0	0	1	4.280402891867925E+002	-2.7611718E-001	-2.7625030E-001	-1.250160012993245E-002	2.000000000000000E+000	-2.0193445E-006	3.4535708E-006
2	0	0	0	1	4.280422891867420E+002	-2.8611335E-001	-2.8625202E-001	-1.279972768477612E-002	2.000000000000000E+000	-2.0446735E-006	3.6639478E-006
2	0	0	0	1	4.280442891866915E+002	-2.9610956E-001	-2.9626343E-001	-1.311539889623714E-002	2.000000000000000E+000	-2.0706202E-006	3.8856128E-006
2	0	0	0	1	4.280462891866409E+002	-3.0610576E-001	-3.0628294E-001	-1.343874168257269E-002	2.000000000000000E+000	-2.0972068E-006	4.1160574E-006
2	0	0	0	1	4.280482891865904E+002	-3.1610194E-001	-3.1628671E-001	-1.377293221452824E-002	2.000000000000000E+000	-2.1244505E-006	4.3561954E-006
2	0	0	0	1	4.280502891865399E+002	-3.2609811E-001	-3.2625538E-001	-1.411487857250088E-002	2.000000000000000E+000	-2.1523722E-006	4.6050550E-006
2	0	0	0	1	4.280522891864894E+002	-3.3609432E-001	-3.3626845E-001	-1.447369075483747E-002	2.000000000000000E+000	-2.1809967E-006	4.8670458E-006
2	0	0	0	1	4.280542891864388E+002	-3.4609050E-001	-3.4628180E-001	-1.483513083116525E-002	2.000000000000000E+000	-2.2103432E-006	5.1371358E-006
2	0	0	0	1	4.280562891863883E+002	-3.5608670E-001	-3.5628921E-001	-1.520163367584046E-002	2.000000000000000E+000	-2.2404174E-006	5.4161778E-006
2	0	0	0	1	4.280582891863378E+002	-3.6608285E-001	-3.6623961E-001	-1.557472778869043E-002	2.000000000000000E+000	-2.2712302E-006	5.7040820E-006
2	0	0	0	1	4.280602891862873E+002	-3.7607908E-001	-3.7626779E-001	-1.595525842559353E-002	2.000000000000000E+000	-2.3027983E-006	6.0034499E-006
2	0	0	0	1	4.280622891862367E+002	-3.8607526E-001	-3.8628450E-001	-1.633680805106345E-002	2.000000000000000E+000	-2.3351288E-006	6.3106559E-006
2	0	0	0	1	4.280642891861862E+002	-3.9607140E-001	-3.9626265E-001	-1.670148949213199E-002	2.000000000000000E+000	-2.3682028E-006	6.6181765E-006
2	0	0	0	1	4.280662891861357E+002	-4.0606764E-001	-4.0628916E-001	-1.707170121941695E-002	2.000000000000000E+000	-2.4020126E-006	6.9360472E-006
2	0	0	0	1	4.280682891860852E+002	-4.1606385E-001	-4.1626221E-001	-1.743415829534778E-002	2.000000000000000E+000	-2.4365561E-006	7.2571811E-006
2	0	0	0	1	4.280702891860346E+002	-4.2606002E-001	-4.2626050E-001	-1.778559576491213E-002	2.000000000000000E+000	-2.4718120E-006	7.5812968E-006
2	0	0	0	1	4.280722891859841E+002	-4.3605623E-001	-4.3623948E-001	-1.812037949902234E-002	2.000000000000000E+000	-2.5077522E-006	7.9048250E-006
2	0	0	0	1	4.280742891859336E+002	-4.4605237E-001	-4.4623268E-001	-1.845226021861082E-002	2.000000000000000E+000	-2.5443592E-006	8.2340011E-006
2	0	0	0	1	4.280762891858831E+002	-4.5604855E-001	-4.5622522E-001	-1.876668375755092E-002	2.000000000000000E+000	-2.5816087E-006	8.5618340E-006
2	0	0	0	1	4.280782891858325E+002	-4.6604475E-001	-4.6623373E-001	-1.908885957709561E-002	2.000000000000000E+000	-2.6194966E-006	8.8998704E-006
2	0	0	0	1	4.280802891857820E+002	-4.7604096E-001	-4.7624496E-001	-1.937577889596774E-002	2.000000000000000E+000	-2.6579939E-006	9.2276168E-006
2	0	0	0	1	4.280822891857315E+002	-4.8603714E-001	-4.8624197E-001	-1.965860726947238E-002	2.000000000000000E+000	-2.6970581E-006	9.5588402E-006
2	0	0	0	1	4.280842891856810E+002	-4.9603334E-001	-4.9622500E-001	-1.994385294528911E-002	2.000000000000000E+000	-2.7366891E-006	9.8966384E-006
2	0	0	0	1	4.280862891856304E+002	-5.0602949E-001	-5.0621629E-001	-2.021971063408678E-002	2.000000000000000E+000	-2.7768822E-006	1.0235547E-005
2	0	0	0	1	4.280882891855799E+002	-5.1602572E-001	-5.1621950E-001	-2.049887453015098E-002	2.000000000000000E+000	-2.8176287E-006	1.0581919E-005
2	0	0	0	1	4.280902891855294E+002	-5.2602190E-001	-5.2621919E-001	-2.076231372039827E-002	2.000000000000000E+000	-2.8589159E-006	1.0925528E-005
2	0	0	0	1	4.280922891854789E+002	-5.3601807E-001	-5.3618640E-001	-2.102723900599005E-002	2.000000000000000E+000	-2.9007340E-006	1.1274519E-005
2	0	0	0	1	4.280942891854284E+002	-5.4601425E-001	-5.4619318E-001	-2.130983605537845E-002	2.000000000000000E+000	-2.9430987E-006	1.1639288E-005
2	0	0	0	1	4.280962891853778E+002	-5.5601048E-001	-5.5619693E-001	-2.160243242906290E-002	2.000000000000000E+000	-2.9860391E-006	1.2015206E-005
2	0	0	0	1	4.280982891853273E+002	-5.6600672E-001	-5.6621581E-001	-2.189941423663794E-002	2.000000000000000E+000	-3.0295710E-006	1.2399794E-005
2	0	0	0	1	4.281002891852768E+002	-5.7600284E-001	-5.7619882E-001	-2.221324497198417E-002	2.000000000000000E+000	-3.0737135E-006	1.2799245E-005
2	0	0	0	1	4.281022891852263E+002	-5.8599907E-001	-5.8618546E-001	-2.254468017539083E-002	2.000000000000000E+000	-3.1185041E-006	1.3215364E-005
2	0	0	0	1	4.281040891851808E+002	-5.9499562E-001	-5.9518290E-001	-2.284531027648240E-002	2.000000000000000E+000	-3.1593581E-006	1.3597138E-005
2	0	0	0	1	4.281049891851580E+002	-5.9949374E-001	-5.9967262E-001	-2.300434932112694E-002	2.000000000000000E+000	-3.1799630E-006	1.3795078E-005
2	0	0	1	1	4.281051891851530E+002	-6.0049337E-001	-6.0064548E-001	-2.303486317396164E-002	2.000000000000000E+000	-3.1845700E-006	1.3835786E-005