EC-Lab ASCII FILE
Nb header lines : 53                          

Cyclic Voltammetry

Run on channel : 1 (SN 0696)
User : 
Electrode connection : standard
Ewe ctrl range : min = -10.00 V, max = 10.00 V
Ewe,I filtering : 50 kHz
Channel : Grounded
Acquisition started on : 05/17/2017 12:53:20
Saved on :
	File : 100 uM RS 10mM PB_06_CV_C01.mpr
	Directory : \\userfs\st659\w2k\EC-Lab\Data\ITO Characterisation 17-5-17\
	Host : 144.32.136.43
Device : SP-300 (SN 0182)
Address : USB
EC-Lab for windows v10.44 (software)
Internet server v10.44 (firmware)
Command interpretor v10.44 (firmware)
Electrode material : 
Initial state : 
Electrolyte : 
Comments : 
Cable : standard
Electrode surface area : 0.001 cm²
Characteristic mass : 0.001 g
Equivalent Weight : 0.000 g/eq.
Density : 0.000 g/cm3
Ei (V)              0.000               
vs.                 Eoc                 
dE/dt               1000.000            
dE/dt unit          mV/s                
E1 (V)              0.100               
vs.                 Ref                 
Step percent        50                  
N                   10                  
E range min (V)     -10.000             
E range max (V)     10.000              
I Range             Auto                
I Range min         Unset               
I Range max         Unset               
I Range init        Unset               
Bandwidth           8                   
E2 (V)              -0.600              
vs.                 Ref                 
nc cycles           2                   
Reverse Scan        1                   
Ef (V)              0.000               
vs.                 Eoc                 

mode	ox/red	error	control changes	counter inc.	time/s	control/V	Ewe/V	<I>/mA	cycle number	(Q-Qo)/C	P/W
2	1	0	0	1	4.216163893490739E+002	-6.0016018E-001	-6.0035175E-001	-1.411621272563934E-002	2.000000000000000E+000	-5.0714211E-006	8.4746935E-006
2	1	0	0	1	4.216182893490259E+002	-5.9832764E-001	-5.9856761E-001	-1.353244332167380E-002	2.000000000000000E+000	-5.0972594E-006	8.1000826E-006
2	1	0	1	1	4.216216893489400E+002	-5.9492898E-001	-5.9515321E-001	-1.267682398101895E-002	2.000000000000000E+000	-5.1416750E-006	7.5446524E-006
2	1	0	1	1	4.216248893488591E+002	-5.9173024E-001	-5.9194976E-001	-1.204835368941223E-002	2.000000000000000E+000	-5.1811307E-006	7.1320201E-006
2	1	0	0	1	4.216282893487733E+002	-5.8833152E-001	-5.8857423E-001	-1.150048604213225E-002	2.000000000000000E+000	-5.2210576E-006	6.7688898E-006
2	1	0	1	1	4.216316893486874E+002	-5.8493280E-001	-5.8517146E-001	-1.103721279008215E-002	2.000000000000000E+000	-5.2592791E-006	6.4586620E-006
2	1	0	1	1	4.216348893486065E+002	-5.8173400E-001	-5.8194828E-001	-1.065084215467019E-002	2.000000000000000E+000	-5.2938976E-006	6.1982391E-006
2	1	0	0	1	4.216382893485206E+002	-5.7833529E-001	-5.7855308E-001	-1.028138043851262E-002	2.000000000000000E+000	-5.3293957E-006	5.9483245E-006
2	1	0	1	1	4.216416893484347E+002	-5.7493657E-001	-5.7516867E-001	-9.946918287581277E-003	2.000000000000000E+000	-5.3637091E-006	5.7211560E-006
2	1	0	1	1	4.216448893483539E+002	-5.7173783E-001	-5.7197279E-001	-9.656825092800594E-003	2.000000000000000E+000	-5.3950062E-006	5.5234414E-006
2	1	0	0	1	4.216482893482680E+002	-5.6833911E-001	-5.6859183E-001	-9.362270176279688E-003	2.000000000000000E+000	-5.4272596E-006	5.3233102E-006
2	1	0	1	1	4.216516893481821E+002	-5.6494045E-001	-5.6518567E-001	-9.084179297133232E-003	2.000000000000000E+000	-5.4585494E-006	5.1342481E-006
2	1	0	1	1	4.216548893481013E+002	-5.6174165E-001	-5.6198055E-001	-8.838836904396893E-003	2.000000000000000E+000	-5.4871580E-006	4.9672544E-006
2	1	0	0	1	4.216582893480154E+002	-5.5834293E-001	-5.5858296E-001	-8.588715350015264E-003	2.000000000000000E+000	-5.5167097E-006	4.7975100E-006
2	1	0	1	1	4.216616893479295E+002	-5.5494422E-001	-5.5518377E-001	-8.346424717456113E-003	2.000000000000000E+000	-5.5454329E-006	4.6337996E-006
2	1	0	1	1	4.216648893478487E+002	-5.5174541E-001	-5.5197489E-001	-8.127692197073572E-003	2.000000000000000E+000	-5.5717283E-006	4.4862823E-006
2	1	0	0	1	4.216682893477628E+002	-5.4834670E-001	-5.4856783E-001	-7.905717650101007E-003	2.000000000000000E+000	-5.5989176E-006	4.3368223E-006
2	1	0	1	1	4.216716893476769E+002	-5.4494798E-001	-5.4517287E-001	-7.692934645698785E-003	2.000000000000000E+000	-5.6253721E-006	4.1939793E-006
2	1	0	1	1	4.216748893475960E+002	-5.4174924E-001	-5.4196441E-001	-7.494606522777744E-003	2.000000000000000E+000	-5.6496128E-006	4.0618102E-006
2	1	0	0	1	4.216782893475101E+002	-5.3835058E-001	-5.3856522E-001	-7.294778715731799E-003	2.000000000000000E+000	-5.6746894E-006	3.9287142E-006
2	1	0	1	1	4.216816893474243E+002	-5.3495187E-001	-5.3515780E-001	-7.103366644878414E-003	2.000000000000000E+000	-5.6991084E-006	3.8014221E-006
2	1	0	1	1	4.216848893473434E+002	-5.3175312E-001	-5.3198886E-001	-6.925443823759744E-003	2.000000000000000E+000	-5.7214961E-006	3.6842589E-006
2	1	0	0	1	4.216882893472575E+002	-5.2835435E-001	-5.2858508E-001	-6.740795178120595E-003	2.000000000000000E+000	-5.7446618E-006	3.5630837E-006
2	1	0	1	1	4.216916893471716E+002	-5.2495563E-001	-5.2519882E-001	-6.563584613771420E-003	2.000000000000000E+000	-5.7672187E-006	3.4471868E-006
2	1	0	1	1	4.216948893470908E+002	-5.2175683E-001	-5.2199119E-001	-6.396442479611616E-003	2.000000000000000E+000	-5.7878965E-006	3.3388867E-006
2	1	0	0	1	4.216982893470049E+002	-5.1835817E-001	-5.1859576E-001	-6.228613838356989E-003	2.000000000000000E+000	-5.8092942E-006	3.2301327E-006
2	1	0	1	1	4.217016893469190E+002	-5.1495951E-001	-5.1520938E-001	-6.065680241833127E-003	2.000000000000000E+000	-5.8301398E-006	3.1250954E-006
2	1	0	1	1	4.217048893468382E+002	-5.1176071E-001	-5.1200885E-001	-5.910628120060830E-003	2.000000000000000E+000	-5.8492474E-006	3.0262938E-006
2	1	0	0	1	4.217082893467523E+002	-5.0836200E-001	-5.0862306E-001	-5.754038450443949E-003	2.000000000000000E+000	-5.8690143E-006	2.9266366E-006
2	1	0	1	1	4.217116893466664E+002	-5.0496328E-001	-5.0520450E-001	-5.596354870855691E-003	2.000000000000000E+000	-5.8882501E-006	2.8273037E-006
2	1	0	1	1	4.217148893465856E+002	-5.0176454E-001	-5.0200260E-001	-5.456609953641098E-003	2.000000000000000E+000	-5.9058771E-006	2.7392323E-006
2	1	0	0	1	4.217182893464997E+002	-4.9836579E-001	-4.9860209E-001	-5.305423089036296E-003	2.000000000000000E+000	-5.9241102E-006	2.6452951E-006
2	1	0	1	1	4.217216893464138E+002	-4.9496710E-001	-4.9519348E-001	-5.161152300691654E-003	2.000000000000000E+000	-5.9418485E-006	2.5557690E-006
2	1	0	1	1	4.217248893463329E+002	-4.9176830E-001	-4.9199885E-001	-5.027294071260235E-003	2.000000000000000E+000	-5.9580989E-006	2.4734229E-006
2	1	0	0	1	4.217282893462470E+002	-4.8836964E-001	-4.8860973E-001	-4.894592373299624E-003	2.000000000000000E+000	-5.9749091E-006	2.3915454E-006
2	1	0	1	1	4.217316893461611E+002	-4.8497093E-001	-4.8521483E-001	-4.759996349700188E-003	2.000000000000000E+000	-5.9912700E-006	2.3096209E-006
2	1	0	1	1	4.217348893460803E+002	-4.8177212E-001	-4.8201215E-001	-4.636053922210215E-003	2.000000000000000E+000	-6.0062503E-006	2.2346344E-006
2	1	0	0	1	4.217382893459944E+002	-4.7837341E-001	-4.7861880E-001	-4.506416144704414E-003	2.000000000000000E+000	-6.0217317E-006	2.1568555E-006
2	1	0	1	1	4.217416893459085E+002	-4.7497469E-001	-4.7519904E-001	-4.379499134787072E-003	2.000000000000000E+000	-6.0367820E-006	2.0811337E-006
2	1	0	1	1	4.217448893458277E+002	-4.7177592E-001	-4.7201589E-001	-4.263045349125597E-003	2.000000000000000E+000	-6.0505581E-006	2.0122252E-006
2	1	0	0	1	4.217482893457418E+002	-4.6837720E-001	-4.6860832E-001	-4.141048171247046E-003	2.000000000000000E+000	-6.0647885E-006	1.9405297E-006
2	1	0	1	1	4.217516893456559E+002	-4.6497852E-001	-4.6519485E-001	-4.019305525859329E-003	2.000000000000000E+000	-6.0786083E-006	1.8697602E-006
2	1	0	1	1	4.217548893455751E+002	-4.6177974E-001	-4.6200278E-001	-3.911203854750051E-003	2.000000000000000E+000	-6.0912466E-006	1.8069870E-006
2	1	0	0	1	4.217582893454892E+002	-4.5838106E-001	-4.5860791E-001	-3.795550821572145E-003	2.000000000000000E+000	-6.1042906E-006	1.7406696E-006
2	1	0	1	1	4.217616893454033E+002	-4.5498234E-001	-4.5519567E-001	-3.683597133173559E-003	2.000000000000000E+000	-6.1169512E-006	1.6767574E-006
2	1	0	1	1	4.217648893453224E+002	-4.5178357E-001	-4.5199490E-001	-3.579665843941864E-003	2.000000000000000E+000	-6.1285227E-006	1.6179907E-006
2	1	0	0	1	4.217682893452366E+002	-4.4838482E-001	-4.4859359E-001	-3.474552052618179E-003	2.000000000000000E+000	-6.1404589E-006	1.5586618E-006
2	1	0	1	1	4.217716893451507E+002	-4.4498610E-001	-4.4521961E-001	-3.372883582111776E-003	2.000000000000000E+000	-6.1520491E-006	1.5016739E-006
2	1	0	1	1	4.217748893450698E+002	-4.4178736E-001	-4.4200712E-001	-3.274291836836099E-003	2.000000000000000E+000	-6.1626347E-006	1.4472603E-006
2	1	0	0	1	4.217782893449839E+002	-4.3838871E-001	-4.3861741E-001	-3.172509122274882E-003	2.000000000000000E+000	-6.1735363E-006	1.3915177E-006
2	1	0	1	1	4.217816893448980E+002	-4.3498999E-001	-4.3521672E-001	-3.071654322502577E-003	2.000000000000000E+000	-6.1840969E-006	1.3368353E-006
2	1	0	1	1	4.217848893448172E+002	-4.3176898E-001	-4.3198204E-001	-2.973113255575300E-003	2.000000000000000E+000	-6.1937180E-006	1.2843316E-006
2	1	0	0	1	4.217882893447313E+002	-4.2832583E-001	-4.2855206E-001	-2.873644199189583E-003	2.000000000000000E+000	-6.2036079E-006	1.2315062E-006
2	1	0	0	1	4.217914893446505E+002	-4.2512709E-001	-4.2538273E-001	-2.791630605224783E-003	2.000000000000000E+000	-6.2126219E-006	1.1875114E-006
2	1	0	1	1	4.217948893445646E+002	-4.2172834E-001	-4.2196056E-001	-2.696369635153434E-003	2.000000000000000E+000	-6.2218969E-006	1.1377616E-006
2	1	0	0	1	4.217982893444787E+002	-4.1832963E-001	-4.1856956E-001	-2.607503624888818E-003	2.000000000000000E+000	-6.2308663E-006	1.0914216E-006
2	1	0	0	1	4.218014893443979E+002	-4.1513085E-001	-4.1537070E-001	-2.523989650399018E-003	2.000000000000000E+000	-6.2390291E-006	1.0483914E-006
2	1	0	1	1	4.218048893443120E+002	-4.1173214E-001	-4.1196305E-001	-2.434805779739691E-003	2.000000000000000E+000	-6.2474032E-006	1.0030500E-006
2	1	0	0	1	4.218082893442261E+002	-4.0833345E-001	-4.0857178E-001	-2.351596950681293E-003	2.000000000000000E+000	-6.2554909E-006	9.6079611E-007
2	1	0	0	1	4.218114893441452E+002	-4.0513465E-001	-4.0537801E-001	-2.270028283980229E-003	2.000000000000000E+000	-6.2628365E-006	9.2021958E-007
2	1	0	1	1	4.218148893440593E+002	-4.0173596E-001	-4.0198451E-001	-2.185993204375347E-003	2.000000000000000E+000	-6.2703580E-006	8.7873542E-007
2	1	0	0	1	4.218182893439734E+002	-3.9833724E-001	-3.9858925E-001	-2.103750568160954E-003	2.000000000000000E+000	-6.2776044E-006	8.3853234E-007
2	1	0	0	1	4.218214893438926E+002	-3.9513850E-001	-3.9538330E-001	-2.028945604145824E-003	2.000000000000000E+000	-6.2841677E-006	8.0221122E-007
2	1	0	1	1	4.218248893438067E+002	-3.9173976E-001	-3.9198202E-001	-1.945762231480332E-003	2.000000000000000E+000	-6.2908680E-006	7.6270379E-007
2	1	0	0	1	4.218282893437208E+002	-3.8834104E-001	-3.8858351E-001	-1.869342536504811E-003	2.000000000000000E+000	-6.2973054E-006	7.2639568E-007
2	1	0	0	1	4.218466893432560E+002	-3.6991677E-001	-3.7019181E-001	-1.476498200561696E-003	2.000000000000000E+000	-6.3294301E-006	5.4658756E-007
2	1	0	1	1	4.218652893427861E+002	-3.5135517E-001	-3.5159472E-001	-1.083583121733985E-003	2.000000000000000E+000	-6.3604630E-006	3.8098210E-007
2	1	0	1	1	4.218684893427053E+002	-3.4815642E-001	-3.4837535E-001	-1.016746415681764E-003	2.000000000000000E+000	-6.3637890E-006	3.5420939E-007
2	1	0	0	1	4.218718893426194E+002	-3.4475768E-001	-3.4499261E-001	-9.484625842029921E-004	2.000000000000000E+000	-6.3670882E-006	3.2721258E-007
2	1	0	1	1	4.218752893425335E+002	-3.4135896E-001	-3.4160480E-001	-8.817237194079976E-004	2.000000000000000E+000	-6.3701646E-006	3.0120106E-007
2	1	0	1	1	4.218784893424527E+002	-3.3816022E-001	-3.3837891E-001	-8.130687840775842E-004	2.000000000000000E+000	-6.3728426E-006	2.7512533E-007
2	1	0	0	1	4.218818893423668E+002	-3.3476153E-001	-3.3497196E-001	-7.477107865800723E-004	2.000000000000000E+000	-6.3754546E-006	2.5046216E-007
2	1	0	1	1	4.218852893422809E+002	-3.3136278E-001	-3.3157635E-001	-6.798161515537970E-004	2.000000000000000E+000	-6.3778443E-006	2.2541096E-007
2	1	0	1	1	4.218884893422000E+002	-3.2816404E-001	-3.2835630E-001	-6.163094240112833E-004	2.000000000000000E+000	-6.3798839E-006	2.0236908E-007
2	1	0	0	1	4.218918893421142E+002	-3.2476529E-001	-3.2495016E-001	-5.491624040738930E-004	2.000000000000000E+000	-6.3818252E-006	1.7845041E-007
2	1	0	1	1	4.218952893420283E+002	-3.2136661E-001	-3.2155111E-001	-4.840065115104136E-004	2.000000000000000E+000	-6.3835469E-006	1.5563283E-007
2	1	0	1	1	4.218984893419474E+002	-3.1816784E-001	-3.1838036E-001	-4.243065599060479E-004	2.000000000000000E+000	-6.3849670E-006	1.3509087E-007
2	1	0	0	1	4.219018893418615E+002	-3.1476912E-001	-3.1497413E-001	-3.575792038229026E-004	2.000000000000000E+000	-6.3862572E-006	1.1262820E-007
2	1	0	1	1	4.219052893417756E+002	-3.1137043E-001	-3.1158587E-001	-2.926343889309159E-004	2.000000000000000E+000	-6.3873290E-006	9.1180745E-008
2	1	0	1	1	4.219084893416948E+002	-3.0817163E-001	-3.0837309E-001	-2.303317046975426E-004	2.000000000000000E+000	-6.3881321E-006	7.1028097E-008
2	1	0	0	1	4.219118893416089E+002	-3.0477294E-001	-3.0495572E-001	-1.631949067747961E-004	2.000000000000000E+000	-6.3887619E-006	4.9767220E-008
2	1	0	1	1	4.219152893415230E+002	-3.0137423E-001	-3.0156839E-001	-1.000708599652473E-004	2.000000000000000E+000	-6.3891771E-006	3.0178207E-008
2	1	0	1	1	4.219184893414422E+002	-2.9817545E-001	-2.9838139E-001	-3.915921012816637E-005	2.000000000000000E+000	-6.3893672E-006	1.1684380E-008
2	1	0	0	1	4.219218893413563E+002	-2.9477677E-001	-2.9494497E-001	3.053711110521110E-005	2.000000000000000E+000	-6.3893417E-006	9.0067678E-009
2	1	0	1	1	4.219252893412704E+002	-2.9137802E-001	-2.9155621E-001	9.470374585778983E-005	2.000000000000000E+000	-6.3890939E-006	2.7611465E-008
2	1	0	1	1	4.219284893411896E+002	-2.8817925E-001	-2.8833783E-001	1.581672589187140E-004	2.000000000000000E+000	-6.3886559E-006	4.5605603E-008
2	1	0	0	1	4.219318893411037E+002	-2.8478053E-001	-2.8493851E-001	2.249086530071064E-004	2.000000000000000E+000	-6.3879652E-006	6.4085135E-008
2	1	0	1	1	4.219352893410178E+002	-2.8138185E-001	-2.8154743E-001	2.891070820624005E-004	2.000000000000000E+000	-6.3870571E-006	8.1397353E-008
2	1	0	1	1	4.219384893409369E+002	-2.7818304E-001	-2.7836636E-001	3.477224271781166E-004	2.000000000000000E+000	-6.3860048E-006	9.6794224E-008
2	1	0	0	1	4.219418893408510E+002	-2.7478436E-001	-2.7497485E-001	4.120098703727631E-004	2.000000000000000E+000	-6.3846710E-006	1.1329235E-007
2	1	0	1	1	4.219452893407652E+002	-2.7138567E-001	-2.7157390E-001	4.797455505467941E-004	2.000000000000000E+000	-6.3831189E-006	1.3028637E-007
2	1	0	1	1	4.219484893406843E+002	-2.6818690E-001	-2.6838002E-001	5.426674046361765E-004	2.000000000000000E+000	-6.3814514E-006	1.4564108E-007
2	1	0	0	1	4.219518893405984E+002	-2.6478818E-001	-2.6498649E-001	6.097609787275365E-004	2.000000000000000E+000	-6.3794528E-006	1.6157841E-007
2	1	0	1	1	4.219552893405125E+002	-2.6138949E-001	-2.6154879E-001	6.770707517944176E-004	2.000000000000000E+000	-6.3772295E-006	1.7708703E-007
2	1	0	1	1	4.219584893404317E+002	-2.5819069E-001	-2.5837094E-001	7.389474440439373E-004	2.000000000000000E+000	-6.3749312E-006	1.9092255E-007
2	1	0	0	1	4.219618893403458E+002	-2.5474757E-001	-2.5493616E-001	8.122560718826829E-004	2.000000000000000E+000	-6.3722559E-006	2.0707344E-007
2	1	0	0	1	4.219650893402650E+002	-2.5152656E-001	-2.5170389E-001	8.775632337119539E-004	2.000000000000000E+000	-6.3695193E-006	2.2088608E-007
2	1	0	1	1	4.219684893401791E+002	-2.4812786E-001	-2.4832226E-001	9.412810357086240E-004	2.000000000000000E+000	-6.3663883E-006	2.3374103E-007
2	1	0	0	1	4.219718893400932E+002	-2.4472916E-001	-2.4492438E-001	1.006299547808946E-003	2.000000000000000E+000	-6.3630437E-006	2.4646729E-007
2	1	0	0	1	4.219750893400123E+002	-2.4153037E-001	-2.4171844E-001	1.067558322824885E-003	2.000000000000000E+000	-6.3596922E-006	2.5804854E-007
2	1	0	1	1	4.219784893399265E+002	-2.3813164E-001	-2.3832335E-001	1.132834911421318E-003	2.000000000000000E+000	-6.3559110E-006	2.6998100E-007
2	1	0	0	1	4.219818893398406E+002	-2.3473296E-001	-2.3492800E-001	1.194140653463668E-003	2.000000000000000E+000	-6.3519224E-006	2.8053708E-007
2	1	0	0	1	4.219850893397597E+002	-2.3153418E-001	-2.3173618E-001	1.250089729076845E-003	2.000000000000000E+000	-6.3479793E-006	2.8969103E-007
2	1	0	1	1	4.219884893396738E+002	-2.2813547E-001	-2.2834708E-001	1.313067576741864E-003	2.000000000000000E+000	-6.3435823E-006	2.9983514E-007
2	1	0	0	1	4.219918893395879E+002	-2.2473678E-001	-2.2495843E-001	1.373643590507831E-003	2.000000000000000E+000	-6.3389803E-006	3.0901271E-007
2	1	0	0	1	4.219950893395071E+002	-2.2153801E-001	-2.2174512E-001	1.430148246709002E-003	2.000000000000000E+000	-6.3344610E-006	3.1712838E-007
2	1	0	1	1	4.219984893394212E+002	-2.1813932E-001	-2.1833581E-001	1.487256912408468E-003	2.000000000000000E+000	-6.3294606E-006	3.2472144E-007
2	1	0	0	1	4.220018893393353E+002	-2.1474059E-001	-2.1494630E-001	1.541854289022614E-003	2.000000000000000E+000	-6.3242778E-006	3.3141586E-007
2	1	0	0	1	4.220050893392545E+002	-2.1154180E-001	-2.1172838E-001	1.594379428646181E-003	2.000000000000000E+000	-6.3192288E-006	3.3757539E-007
2	1	0	1	1	4.220084893391686E+002	-2.0814310E-001	-2.0831384E-001	1.647599870527003E-003	2.000000000000000E+000	-6.3136772E-006	3.4321786E-007
2	1	0	0	1	4.220118893390827E+002	-2.0474441E-001	-2.0493582E-001	1.696601556265401E-003	2.000000000000000E+000	-6.3079601E-006	3.4769442E-007
2	1	0	0	1	4.220150893390019E+002	-2.0154561E-001	-2.0172846E-001	1.740658365179115E-003	2.000000000000000E+000	-6.3024286E-006	3.5114033E-007
2	1	0	1	1	4.220184893389160E+002	-1.9814691E-001	-1.9831862E-001	1.789143838353387E-003	2.000000000000000E+000	-6.2963895E-006	3.5482054E-007
2	1	0	0	1	4.220218893388301E+002	-1.9474822E-001	-1.9493318E-001	1.832707352969018E-003	2.000000000000000E+000	-6.2901977E-006	3.5725546E-007
2	1	0	0	1	4.220250893387492E+002	-1.9154944E-001	-1.9172607E-001	1.872724668555745E-003	2.000000000000000E+000	-6.2842369E-006	3.5905015E-007
2	1	0	1	1	4.220284893386633E+002	-1.8815073E-001	-1.8831460E-001	1.912220802008348E-003	2.000000000000000E+000	-6.2777654E-006	3.6009911E-007
2	1	0	0	1	4.220318893385775E+002	-1.8475202E-001	-1.8495028E-001	1.952344853346707E-003	2.000000000000000E+000	-6.2711638E-006	3.6108673E-007
2	1	0	0	1	4.220350893384966E+002	-1.8155326E-001	-1.8175019E-001	1.992221251506028E-003	2.000000000000000E+000	-6.2648210E-006	3.6208661E-007
2	1	0	1	1	4.220384893384107E+002	-1.7815453E-001	-1.7834722E-001	2.031256736942551E-003	2.000000000000000E+000	-6.2579425E-006	3.6226899E-007
2	1	0	0	1	4.220418893383248E+002	-1.7475583E-001	-1.7494196E-001	2.069173869570786E-003	2.000000000000000E+000	-6.2509398E-006	3.6198531E-007
2	1	0	0	1	4.220450893382440E+002	-1.7155707E-001	-1.7173205E-001	2.104250013068549E-003	2.000000000000000E+000	-6.2442318E-006	3.6136717E-007
2	1	0	1	1	4.220484893381581E+002	-1.6815835E-001	-1.6834435E-001	2.139641954939490E-003	2.000000000000000E+000	-6.2369804E-006	3.6019662E-007
2	1	0	0	1	4.220518893380722E+002	-1.6475965E-001	-1.6494532E-001	2.172343012792535E-003	2.000000000000000E+000	-6.2296181E-006	3.5831781E-007
2	1	0	0	1	4.220550893379914E+002	-1.6156086E-001	-1.6173172E-001	2.202132730478000E-003	2.000000000000000E+000	-6.2225886E-006	3.5615471E-007
2	1	0	1	1	4.220584893379055E+002	-1.5816216E-001	-1.5832876E-001	2.237010741040051E-003	2.000000000000000E+000	-6.2150066E-006	3.5418313E-007
2	1	0	0	1	4.220618893378196E+002	-1.5476345E-001	-1.5493253E-001	2.268013351961903E-003	2.000000000000000E+000	-6.2073168E-006	3.5138905E-007
2	1	0	0	1	4.220650893377388E+002	-1.5156467E-001	-1.5173574E-001	2.296189323881972E-003	2.000000000000000E+000	-6.1999840E-006	3.4841398E-007
2	1	0	1	1	4.220684893376529E+002	-1.4816596E-001	-1.4834675E-001	2.324669365665012E-003	2.000000000000000E+000	-6.1920919E-006	3.4485714E-007
2	1	0	0	1	4.220718893375670E+002	-1.4476725E-001	-1.4495917E-001	2.355558559641704E-003	2.000000000000000E+000	-6.1841033E-006	3.4145981E-007
2	1	0	0	1	4.220750893374861E+002	-1.4156848E-001	-1.4174366E-001	2.381992736703377E-003	2.000000000000000E+000	-6.1764927E-006	3.3763237E-007
2	1	0	1	1	4.220784893374002E+002	-1.3816978E-001	-1.3834554E-001	2.411170830661526E-003	2.000000000000000E+000	-6.1683086E-006	3.3357472E-007
2	1	0	0	1	4.220818893373144E+002	-1.3477106E-001	-1.3493773E-001	2.436948735642848E-003	2.000000000000000E+000	-6.1600372E-006	3.2883634E-007
2	1	0	0	1	4.220850893372335E+002	-1.3157229E-001	-1.3173556E-001	2.462267717722476E-003	2.000000000000000E+000	-6.1521691E-006	3.2436822E-007
2	1	0	1	1	4.220884893371476E+002	-1.2817357E-001	-1.2834254E-001	2.485506635791057E-003	2.000000000000000E+000	-6.1437231E-006	3.1899623E-007
2	1	0	0	1	4.220918893370617E+002	-1.2477488E-001	-1.2492418E-001	2.511649661452491E-003	2.000000000000000E+000	-6.1351961E-006	3.1376575E-007
2	1	0	0	1	4.220950893369809E+002	-1.2157611E-001	-1.2171593E-001	2.531896747980981E-003	2.000000000000000E+000	-6.1270966E-006	3.0817216E-007
2	1	0	1	1	4.220984893368950E+002	-1.1817740E-001	-1.1831308E-001	2.557564255160589E-003	2.000000000000000E+000	-6.1184091E-006	3.0259332E-007
2	1	0	0	1	4.221018893368091E+002	-1.1477870E-001	-1.1492742E-001	2.580120117060387E-003	2.000000000000000E+000	-6.1096453E-006	2.9652654E-007
2	1	0	0	1	4.221050893367283E+002	-1.1157991E-001	-1.1171025E-001	2.600235294539739E-003	2.000000000000000E+000	-6.1013266E-006	2.9047294E-007
2	1	0	1	1	4.221084893366424E+002	-1.0818122E-001	-1.0832446E-001	2.621220842956976E-003	2.000000000000000E+000	-6.0924162E-006	2.8394234E-007
2	1	0	0	1	4.221118893365565E+002	-1.0478251E-001	-1.0493370E-001	2.640785322334221E-003	2.000000000000000E+000	-6.0834409E-006	2.7710738E-007
2	1	0	0	1	4.221150893364756E+002	-1.0158373E-001	-1.0174592E-001	2.659282690910914E-003	2.000000000000000E+000	-6.0749308E-006	2.7057115E-007
2	1	0	1	1	4.221184893363898E+002	-9.8185025E-002	-9.8361008E-002	2.674993267282849E-003	2.000000000000000E+000	-6.0658290E-006	2.6311503E-007
2	1	0	0	1	4.221218893363039E+002	-9.4786309E-002	-9.4950154E-002	2.695583615119776E-003	2.000000000000000E+000	-6.0566672E-006	2.5594608E-007
2	1	0	0	1	4.221250893362230E+002	-9.1587536E-002	-9.1749802E-002	2.717006965273570E-003	2.000000000000000E+000	-6.0479761E-006	2.4928485E-007
2	1	0	1	1	4.221284893361371E+002	-8.8188834E-002	-8.8354081E-002	2.733143400989013E-003	2.000000000000000E+000	-6.0386747E-006	2.4148437E-007
2	1	0	0	1	4.221318893360512E+002	-8.4790133E-002	-8.4975906E-002	2.749480438827362E-003	2.000000000000000E+000	-6.0293246E-006	2.3363960E-007
2	1	0	0	1	4.221350893359704E+002	-8.1569135E-002	-8.1756473E-002	2.768242658415444E-003	2.000000000000000E+000	-6.0204661E-006	2.2632176E-007
2	1	0	1	1	4.221384893358845E+002	-7.8125991E-002	-7.8315727E-002	2.792681607782774E-003	2.000000000000000E+000	-6.0109787E-006	2.1871089E-007
2	1	0	1	1	4.221416893358037E+002	-7.4927218E-002	-7.5104669E-002	2.807591260231376E-003	2.000000000000000E+000	-6.0019893E-006	2.1086321E-007
2	1	0	0	1	4.221450893357178E+002	-7.1528517E-002	-7.1694329E-002	2.823043455767525E-003	2.000000000000000E+000	-5.9923818E-006	2.0239621E-007
2	1	0	1	1	4.221484893356319E+002	-6.8129808E-002	-6.8305731E-002	2.833595379555229E-003	2.000000000000000E+000	-5.9827362E-006	1.9355080E-007
2	1	0	1	1	4.221516893355511E+002	-6.4931028E-002	-6.5115161E-002	2.844064780886883E-003	2.000000000000000E+000	-5.9736226E-006	1.8519174E-007
2	1	0	0	1	4.221550893354652E+002	-6.1532326E-002	-6.1721470E-002	2.856332131705133E-003	2.000000000000000E+000	-5.9638974E-006	1.7629702E-007
2	1	0	1	1	4.221584893353793E+002	-5.8133621E-002	-5.8313932E-002	2.870647648038963E-003	2.000000000000000E+000	-5.9541317E-006	1.6739875E-007
2	1	0	1	1	4.221616893352984E+002	-5.4934841E-002	-5.5127930E-002	2.881709596719392E-003	2.000000000000000E+000	-5.9449012E-006	1.5886269E-007
2	1	0	0	1	4.221650893352125E+002	-5.1536135E-002	-5.1737554E-002	2.893525587084392E-003	2.000000000000000E+000	-5.9350482E-006	1.4970394E-007
2	1	0	1	1	4.221684893351267E+002	-4.8137430E-002	-4.8317287E-002	2.907246055413759E-003	2.000000000000000E+000	-5.9251565E-006	1.4047025E-007
2	1	0	1	1	4.221716893350458E+002	-4.4938650E-002	-4.5132689E-002	2.913038883646850E-003	2.000000000000000E+000	-5.9158165E-006	1.3147329E-007
2	1	0	0	1	4.221750893349599E+002	-4.1539945E-002	-4.1731633E-002	2.924718637950718E-003	2.000000000000000E+000	-5.9058580E-006	1.2205328E-007
2	1	0	1	1	4.221784893348740E+002	-3.8141243E-002	-3.8315184E-002	2.938948047358281E-003	2.000000000000000E+000	-5.8958608E-006	1.1260634E-007
2	1	0	1	1	4.221816893347932E+002	-3.4942463E-002	-3.5111763E-002	2.943773218430576E-003	2.000000000000000E+000	-5.8864216E-006	1.0336107E-007
2	1	0	0	1	4.221850893347073E+002	-3.1543758E-002	-3.1706888E-002	2.952585873814913E-003	2.000000000000000E+000	-5.8763635E-006	9.3617309E-008
2	1	0	1	1	4.221884893346214E+002	-2.8145054E-002	-2.8307864E-002	2.958851785388100E-003	2.000000000000000E+000	-5.8662854E-006	8.3758778E-008
2	1	0	1	1	4.221916893345406E+002	-2.4946272E-002	-2.5096048E-002	2.963918601593223E-003	2.000000000000000E+000	-5.8567816E-006	7.4382640E-008
2	1	0	0	1	4.221950893344547E+002	-2.1547569E-002	-2.1704530E-002	2.968840626787546E-003	2.000000000000000E+000	-5.8466626E-006	6.4437295E-008
2	1	0	1	1	4.221984893343688E+002	-1.8148864E-002	-1.8317206E-002	2.973064409525245E-003	2.000000000000000E+000	-5.8365317E-006	5.4458233E-008
2	1	0	1	1	4.222016893342879E+002	-1.4950082E-002	-1.5129174E-002	2.976919455431923E-003	2.000000000000000E+000	-5.8269843E-006	4.5038334E-008
2	1	0	0	1	4.222050893342021E+002	-1.1551379E-002	-1.1737270E-002	2.981406517604535E-003	2.000000000000000E+000	-5.8168225E-006	3.4993572E-008
2	1	0	1	1	4.222084893341162E+002	-8.1526740E-003	-8.3402796E-003	2.985304735345085E-003	2.000000000000000E+000	-5.8066498E-006	2.4898275E-008
2	1	0	1	1	4.222116893340353E+002	-4.9538929E-003	-5.1475428E-003	2.988294217114645E-003	2.000000000000000E+000	-5.7970633E-006	1.5382373E-008
2	1	0	0	1	4.222150893339494E+002	-1.5477543E-003	-1.7347818E-003	2.989376161258404E-003	2.000000000000000E+000	-5.7868683E-006	5.1859153E-009
2	1	0	1	1	4.222184893338635E+002	1.8435147E-003	1.6853538E-003	2.996347774751482E-003	2.000000000000000E+000	-5.7766633E-006	5.0499063E-009
2	1	0	1	1	4.222216893337827E+002	5.0422936E-003	4.8958953E-003	2.998585619419236E-003	2.000000000000000E+000	-5.7670422E-006	1.4680761E-008
2	1	0	0	1	4.222250893336968E+002	8.4409965E-003	8.2858885E-003	2.996322124363363E-003	2.000000000000000E+000	-5.7568154E-006	2.4827191E-008
2	1	0	1	1	4.222284893336109E+002	1.1839699E-002	1.1699665E-002	2.997167914539509E-003	2.000000000000000E+000	-5.7465968E-006	3.5065863E-008
2	1	0	1	1	4.222316893335301E+002	1.5038479E-002	1.4914277E-002	2.999569665128848E-003	2.000000000000000E+000	-5.7369739E-006	4.4736414E-008
2	1	0	0	1	4.222350893334442E+002	1.8437183E-002	1.8319532E-002	2.998017380014061E-003	2.000000000000000E+000	-5.7267448E-006	5.4922275E-008
2	1	0	1	1	4.222384893333583E+002	2.1835884E-002	2.1695660E-002	2.998238520952629E-003	2.000000000000000E+000	-5.7165248E-006	6.5048766E-008
2	1	0	1	1	4.222416893332775E+002	2.5034664E-002	2.4896665E-002	2.997010196880489E-003	2.000000000000000E+000	-5.7069069E-006	7.4615556E-008
2	1	0	0	1	4.222450893331916E+002	2.8433366E-002	2.8287295E-002	2.996197850764777E-003	2.000000000000000E+000	-5.6966851E-006	8.4754333E-008
2	1	0	1	1	4.222484893331057E+002	3.1832069E-002	3.1699415E-002	2.995704442704070E-003	2.000000000000000E+000	-5.6864728E-006	9.4962083E-008
2	1	0	1	1	4.222516893330248E+002	3.5030846E-002	3.4897748E-002	2.995127205061482E-003	2.000000000000000E+000	-5.6768617E-006	1.0452320E-007
2	1	0	0	1	4.222550893329390E+002	3.8429555E-002	3.8298555E-002	2.993110470773296E-003	2.000000000000000E+000	-5.6666481E-006	1.1463180E-007
2	1	0	1	1	4.222584893328531E+002	4.1828252E-002	4.1681934E-002	2.992802943723900E-003	2.000000000000000E+000	-5.6564450E-006	1.2474581E-007
2	1	0	1	1	4.222616893327722E+002	4.5027036E-002	4.4891208E-002	2.994373359706516E-003	2.000000000000000E+000	-5.6468389E-006	1.3442104E-007
2	1	0	0	1	4.222650893326863E+002	4.8425738E-002	4.8322655E-002	2.994989827220698E-003	2.000000000000000E+000	-5.6366230E-006	1.4472586E-007
2	1	0	1	1	4.222684893326004E+002	5.1824443E-002	5.1714178E-002	2.992200202030900E-003	2.000000000000000E+000	-5.6264175E-006	1.5473917E-007
2	1	0	1	1	4.222716893325196E+002	5.5023216E-002	5.4928664E-002	2.990912307783825E-003	2.000000000000000E+000	-5.6168183E-006	1.6428682E-007
2	1	0	0	1	4.222750893324337E+002	5.8421917E-002	5.8316112E-002	2.990266165973768E-003	2.000000000000000E+000	-5.6066160E-006	1.7438070E-007
2	1	0	1	1	4.222784893323478E+002	6.1820626E-002	6.1709408E-002	2.985904962467128E-003	2.000000000000000E+000	-5.5964297E-006	1.8425843E-007
2	1	0	1	1	4.222816893322670E+002	6.5019406E-002	6.4918928E-002	2.986389447657228E-003	2.000000000000000E+000	-5.5868463E-006	1.9387321E-007
2	1	0	0	1	4.222850893321811E+002	6.8418108E-002	6.8287686E-002	2.983985016787004E-003	2.000000000000000E+000	-5.5766641E-006	2.0376943E-007
2	1	0	1	1	4.222884893320952E+002	7.1816817E-002	7.1680099E-002	2.981187842851799E-003	2.000000000000000E+000	-5.5664950E-006	2.1369183E-007
2	1	0	1	1	4.222916893320144E+002	7.5015590E-002	7.4890256E-002	2.983140964382382E-003	2.000000000000000E+000	-5.5569240E-006	2.2340819E-007
2	1	0	0	1	4.222950893319285E+002	7.8414291E-002	7.8310274E-002	2.986342385732617E-003	2.000000000000000E+000	-5.5467403E-006	2.3386129E-007
2	1	0	1	1	4.222984893318426E+002	8.1812993E-002	8.1687793E-002	2.985296130888555E-003	2.000000000000000E+000	-5.5365608E-006	2.4386225E-007
2	1	0	1	1	4.223016893317617E+002	8.5011773E-002	8.4880412E-002	2.984430076200320E-003	2.000000000000000E+000	-5.5269838E-006	2.5331966E-007
2	1	0	0	1	4.223050893316758E+002	8.8410482E-002	8.8270277E-002	2.981998999014961E-003	2.000000000000000E+000	-5.5168075E-006	2.6322186E-007
2	1	0	1	1	4.223084893315900E+002	9.1809183E-002	9.1681384E-002	2.983864331296597E-003	2.000000000000000E+000	-5.5066357E-006	2.7356481E-007
2	1	0	1	1	4.223116893315091E+002	9.5074601E-002	9.4957791E-002	2.994326002650878E-003	2.000000000000000E+000	-5.4970433E-006	2.8433459E-007
2	1	0	0	1	4.223148893314283E+002	9.8278508E-002	9.8152377E-002	2.997312619194968E-003	2.000000000000000E+000	-5.4874290E-006	2.9419337E-007
2	0	0	0	1	4.223167893313803E+002	9.9906117E-002	9.9822223E-002	2.969219698570669E-003	2.000000000000000E+000	-5.4817297E-006	2.9639412E-007
2	0	0	0	1	4.223186893313323E+002	9.8006822E-002	9.7899735E-002	2.311950521864977E-003	2.000000000000000E+000	-5.4771876E-006	2.2633934E-007
2	0	0	0	1	4.223218893312514E+002	9.4785810E-002	9.4665915E-002	1.523649266588718E-003	2.000000000000000E+000	-5.4711709E-006	1.4423765E-007
2	0	0	1	1	4.223252893311656E+002	9.1342688E-002	9.1206498E-002	9.566735771310694E-004	2.000000000000000E+000	-5.4670568E-006	8.7254847E-008
2	0	0	1	1	4.223284893310847E+002	8.8143907E-002	8.7997600E-002	5.827038561733398E-004	2.000000000000000E+000	-5.4646612E-006	5.1276540E-008
2	0	0	0	1	4.223318893309988E+002	8.4745198E-002	8.4620327E-002	2.907905104033641E-004	2.000000000000000E+000	-5.4632428E-006	2.4606788E-008
2	0	0	1	1	4.223352893309129E+002	8.1346497E-002	8.1213415E-002	6.072592377321929E-005	2.000000000000000E+000	-5.4626994E-006	4.9317594E-009
2	0	0	1	1	4.223384893308321E+002	7.8147724E-002	7.8029327E-002	-1.137901598222395E-004	2.000000000000000E+000	-5.4628304E-006	8.8789696E-009
2	0	0	0	1	4.223418893307462E+002	7.4749023E-002	7.4627630E-002	-2.727598526405476E-004	2.000000000000000E+000	-5.4635407E-006	2.0355422E-008
2	0	0	1	1	4.223452893306603E+002	7.1350321E-002	7.1224540E-002	-4.072369256353636E-004	2.000000000000000E+000	-5.4647389E-006	2.9005262E-008
2	0	0	1	1	4.223484893305795E+002	6.8151534E-002	6.8012729E-002	-5.165832176544419E-004	2.000000000000000E+000	-5.4662551E-006	3.5134235E-008
2	0	0	0	1	4.223518893304936E+002	6.4752832E-002	6.4616114E-002	-6.225244327576259E-004	2.000000000000000E+000	-5.4682359E-006	4.0225110E-008
2	0	0	1	1	4.223552893304077E+002	6.1354134E-002	6.1233882E-002	-7.179046940488341E-004	2.000000000000000E+000	-5.4705501E-006	4.3960092E-008
2	0	0	1	1	4.223584893303268E+002	5.8155358E-002	5.8044326E-002	-7.977601091094313E-004	2.000000000000000E+000	-5.4730108E-006	4.6305448E-008
2	0	0	0	1	4.223618893302410E+002	5.4756656E-002	5.4627623E-002	-8.829939520334541E-004	2.000000000000000E+000	-5.4759103E-006	4.8235862E-008
2	0	0	1	1	4.223652893301551E+002	5.1357951E-002	5.1228091E-002	-9.599046607566657E-004	2.000000000000000E+000	-5.4790794E-006	4.9174083E-008
2	0	0	1	1	4.223684893300742E+002	4.8159171E-002	4.8026074E-002	-1.027163609235987E-003	2.000000000000000E+000	-5.4822935E-006	4.9330634E-008
2	0	0	0	1	4.223718893299883E+002	4.4760469E-002	4.4628449E-002	-1.099257948165660E-003	2.000000000000000E+000	-5.4859493E-006	4.9058176E-008
2	0	0	1	1	4.223752893299024E+002	4.1361768E-002	4.1208696E-002	-1.165611517732635E-003	2.000000000000000E+000	-5.4898369E-006	4.8033332E-008
2	0	0	1	1	4.223784893298216E+002	3.8162988E-002	3.8002480E-002	-1.223624209236127E-003	2.000000000000000E+000	-5.4936950E-006	4.6500755E-008
2	0	0	0	1	4.223818893297357E+002	3.4764286E-002	3.4607016E-002	-1.283996802400600E-003	2.000000000000000E+000	-5.4979969E-006	4.4435296E-008
2	0	0	1	1	4.223852893296498E+002	3.1365585E-002	3.1213077E-002	-1.343366159608193E-003	2.000000000000000E+000	-5.5024989E-006	4.1930591E-008
2	0	0	1	1	4.223884893295690E+002	2.8166801E-002	2.8011188E-002	-1.396242000949614E-003	2.000000000000000E+000	-5.5069140E-006	3.9110397E-008
2	0	0	0	1	4.223918893294831E+002	2.4768099E-002	2.4611019E-002	-1.451784154217720E-003	2.000000000000000E+000	-5.5117948E-006	3.5729887E-008
2	0	0	1	1	4.223952893293972E+002	2.1369396E-002	2.1217210E-002	-1.502464241775660E-003	2.000000000000000E+000	-5.5168516E-006	3.1878098E-008
2	0	0	1	1	4.223984893293164E+002	1.8170616E-002	1.8024091E-002	-1.553725285172433E-003	2.000000000000000E+000	-5.5217738E-006	2.8004486E-008
2	0	0	0	1	4.224018893292305E+002	1.4771913E-002	1.4629647E-002	-1.603023073736644E-003	2.000000000000000E+000	-5.5271785E-006	2.3451662E-008
2	0	0	1	1	4.224052893291446E+002	1.1373211E-002	1.1208877E-002	-1.655816391682181E-003	2.000000000000000E+000	-5.5327523E-006	1.8559842E-008
2	0	0	1	1	4.224084893290637E+002	8.1744306E-003	7.9886680E-003	-1.702502669483401E-003	2.000000000000000E+000	-5.5381574E-006	1.3600729E-008
2	0	0	0	1	4.224118893289779E+002	4.7757286E-003	4.6084677E-003	-1.748822795404219E-003	2.000000000000000E+000	-5.5440632E-006	8.0593932E-009
2	0	0	1	1	4.224152893288920E+002	1.3770259E-003	1.1857894E-003	-1.800019104439339E-003	2.000000000000000E+000	-5.5501300E-006	2.1344435E-009
2	0	0	1	1	4.224184893288111E+002	-1.8217539E-003	-2.0242445E-003	-1.845277436344384E-003	2.000000000000000E+000	-5.5559944E-006	3.7352925E-009
2	0	0	0	1	4.224218893287252E+002	-5.2204579E-003	-5.4136035E-003	-1.886988506309225E-003	2.000000000000000E+000	-5.5623786E-006	1.0215407E-008
2	0	0	1	1	4.224252893286393E+002	-8.6191632E-003	-8.8188592E-003	-1.933615024457443E-003	2.000000000000000E+000	-5.5689065E-006	1.7052280E-008
2	0	0	1	1	4.224284893285585E+002	-1.1817942E-002	-1.2021136E-002	-1.974853171441276E-003	2.000000000000000E+000	-5.5751925E-006	2.3739979E-008
2	0	0	0	1	4.224318893284726E+002	-1.5216648E-002	-1.5416601E-002	-2.019258509229384E-003	2.000000000000000E+000	-5.5820219E-006	3.1130103E-008
2	0	0	1	1	4.224352893283867E+002	-1.8615352E-002	-1.8804815E-002	-2.060973308016400E-003	2.000000000000000E+000	-5.5889896E-006	3.8756220E-008
2	0	0	1	1	4.224384893283059E+002	-2.1814132E-002	-2.2016246E-002	-2.100213640475577E-003	2.000000000000000E+000	-5.5956784E-006	4.6238821E-008
2	0	0	0	1	4.224418893282200E+002	-2.5212837E-002	-2.5405733E-002	-2.142498090370277E-003	2.000000000000000E+000	-5.6029276E-006	5.4431734E-008
2	0	0	1	1	4.224452893281341E+002	-2.8611541E-002	-2.8801451E-002	-2.185013884218278E-003	2.000000000000000E+000	-5.6103158E-006	6.2931569E-008
2	0	0	1	1	4.224484893280533E+002	-3.1810321E-002	-3.1991776E-002	-2.226096791021811E-003	2.000000000000000E+000	-5.6174063E-006	7.1216789E-008
2	0	0	0	1	4.224518893279674E+002	-3.5209026E-002	-3.5393342E-002	-2.268294744438508E-003	2.000000000000000E+000	-5.6250851E-006	8.0282533E-008
2	0	0	1	1	4.224552893278815E+002	-3.8607731E-002	-3.8808767E-002	-2.308951699463552E-003	2.000000000000000E+000	-5.6328968E-006	8.9607568E-008
2	0	0	1	1	4.224584893278006E+002	-4.1806512E-002	-4.2011555E-002	-2.350899122772414E-003	2.000000000000000E+000	-5.6403828E-006	9.8764929E-008
2	0	0	0	1	4.224618893277147E+002	-4.5205217E-002	-4.5410834E-002	-2.389832142065035E-003	2.000000000000000E+000	-5.6484801E-006	1.0852427E-007
2	0	0	1	1	4.224652893276289E+002	-4.8603918E-002	-4.8807189E-002	-2.427736245651121E-003	2.000000000000000E+000	-5.6567019E-006	1.1849098E-007
2	0	0	1	1	4.224684893275480E+002	-5.1802702E-002	-5.2005269E-002	-2.466347340183955E-003	2.000000000000000E+000	-5.6645636E-006	1.2826305E-007
2	0	0	0	1	4.224718893274621E+002	-5.5201404E-002	-5.5420186E-002	-2.506805852044634E-003	2.000000000000000E+000	-5.6730555E-006	1.3892765E-007
2	0	0	1	1	4.224752893273762E+002	-5.8600105E-002	-5.8804337E-002	-2.544945416351162E-003	2.000000000000000E+000	-5.6816762E-006	1.4965383E-007
2	0	0	1	1	4.224784893272954E+002	-6.1798889E-002	-6.1995290E-002	-2.581754829467792E-003	2.000000000000000E+000	-5.6899103E-006	1.6005664E-007
2	0	0	0	1	4.224818893272095E+002	-6.5197594E-002	-6.5384403E-002	-2.619704534299667E-003	2.000000000000000E+000	-5.6987892E-006	1.7128782E-007
2	0	0	1	1	4.224852893271236E+002	-6.8596296E-002	-6.8805046E-002	-2.658786391142101E-003	2.000000000000000E+000	-5.7077946E-006	1.8293792E-007
2	0	0	1	1	4.224884893270428E+002	-7.1795076E-002	-7.1993582E-002	-2.695015975617332E-003	2.000000000000000E+000	-5.7163902E-006	1.9402385E-007
2	0	0	0	1	4.224918893269569E+002	-7.5193778E-002	-7.5399481E-002	-2.736358191153455E-003	2.000000000000000E+000	-5.7256620E-006	2.0631998E-007
2	0	0	1	1	4.224952893268710E+002	-7.8592487E-002	-7.8794040E-002	-2.774920945921626E-003	2.000000000000000E+000	-5.7350630E-006	2.1864723E-007
2	0	0	1	1	4.224984893267902E+002	-8.1857905E-002	-8.2065262E-002	-2.819215470935887E-003	2.000000000000000E+000	-5.7440452E-006	2.3135965E-007
2	0	0	0	1	4.225018893267043E+002	-8.5256614E-002	-8.5456401E-002	-2.853260780951439E-003	2.000000000000000E+000	-5.7537227E-006	2.4382939E-007
2	0	0	0	1	4.225050893266234E+002	-8.8455394E-002	-8.8655502E-002	-2.888534340430252E-003	2.000000000000000E+000	-5.7629386E-006	2.5608446E-007
2	0	0	1	1	4.225084893265375E+002	-9.1854088E-002	-9.2036456E-002	-2.923900537492346E-003	2.000000000000000E+000	-5.7728548E-006	2.6910544E-007
2	0	0	0	1	4.225118893264516E+002	-9.5252797E-002	-9.5444880E-002	-2.961376289537521E-003	2.000000000000000E+000	-5.7828920E-006	2.8264822E-007
2	0	0	0	1	4.225150893263708E+002	-9.8451592E-002	-9.8641455E-002	-2.997673102921296E-003	2.000000000000000E+000	-5.7924594E-006	2.9569483E-007
2	0	0	1	1	4.225184893262849E+002	-1.0185029E-001	-1.0203984E-001	-3.034517050764414E-003	2.000000000000000E+000	-5.8027513E-006	3.0964165E-007
2	0	0	0	1	4.225218893261990E+002	-1.0524899E-001	-1.0543797E-001	-3.071238588563577E-003	2.000000000000000E+000	-5.8131632E-006	3.2382516E-007
2	0	0	0	1	4.225250893261182E+002	-1.0844777E-001	-1.0862652E-001	-3.106008510682532E-003	2.000000000000000E+000	-5.8230776E-006	3.3739491E-007
2	0	0	1	1	4.225284893260323E+002	-1.1184648E-001	-1.1202770E-001	-3.143847981179233E-003	2.000000000000000E+000	-5.8337405E-006	3.5219804E-007
2	0	0	0	1	4.225318893259464E+002	-1.1524518E-001	-1.1541172E-001	-3.184354846932065E-003	2.000000000000000E+000	-5.8445312E-006	3.6751189E-007
2	0	0	0	1	4.225350893258656E+002	-1.1844395E-001	-1.1863180E-001	-3.220855137866852E-003	2.000000000000000E+000	-5.8548098E-006	3.8209586E-007
2	0	0	1	1	4.225384893257797E+002	-1.2184266E-001	-1.2201772E-001	-3.260136354371444E-003	2.000000000000000E+000	-5.8658657E-006	3.9779439E-007
2	0	0	0	1	4.225418893256938E+002	-1.2524138E-001	-1.2543672E-001	-3.299005696893190E-003	2.000000000000000E+000	-5.8770479E-006	4.1381645E-007
2	0	0	0	1	4.225450893256129E+002	-1.2844016E-001	-1.2865198E-001	-3.337531467180556E-003	2.000000000000000E+000	-5.8876985E-006	4.2938001E-007
2	0	0	1	1	4.225484893255270E+002	-1.3183887E-001	-1.3204171E-001	-3.375395062569925E-003	2.000000000000000E+000	-5.8991482E-006	4.4569293E-007
2	0	0	0	1	4.225518893254412E+002	-1.3523756E-001	-1.3542929E-001	-3.411346211942140E-003	2.000000000000000E+000	-5.9107178E-006	4.6199619E-007
2	0	0	0	1	4.225550893253603E+002	-1.3843636E-001	-1.3864936E-001	-3.450281510140485E-003	2.000000000000000E+000	-5.9217282E-006	4.7837932E-007
2	0	0	1	1	4.225584893252744E+002	-1.4183505E-001	-1.4203733E-001	-3.487902057046702E-003	2.000000000000000E+000	-5.9335598E-006	4.9541228E-007
2	0	0	0	1	4.225618893251885E+002	-1.4523375E-001	-1.4544144E-001	-3.526918862614057E-003	2.000000000000000E+000	-5.9455160E-006	5.1296018E-007
2	0	0	0	1	4.225650893251077E+002	-1.4843252E-001	-1.4863774E-001	-3.563362070114331E-003	2.000000000000000E+000	-5.9568915E-006	5.2965009E-007
2	0	0	1	1	4.225684893250218E+002	-1.5183124E-001	-1.5203625E-001	-3.601841019978264E-003	2.000000000000000E+000	-5.9691106E-006	5.4761040E-007
2	0	0	0	1	4.225718893249359E+002	-1.5522996E-001	-1.5540272E-001	-3.639752726636893E-003	2.000000000000000E+000	-5.9814520E-006	5.6562749E-007
2	0	0	0	1	4.225750893248551E+002	-1.5842873E-001	-1.5862444E-001	-3.679557765523582E-003	2.000000000000000E+000	-5.9931949E-006	5.8366777E-007
2	0	0	1	1	4.225784893247692E+002	-1.6182743E-001	-1.6202614E-001	-3.720607663793396E-003	2.000000000000000E+000	-6.0058132E-006	6.0283571E-007
2	0	0	0	1	4.225818893246833E+002	-1.6522613E-001	-1.6543777E-001	-3.757349769906194E-003	2.000000000000000E+000	-6.0185594E-006	6.2160757E-007
2	0	0	0	1	4.225850893246025E+002	-1.6842490E-001	-1.6864488E-001	-3.797553797873367E-003	2.000000000000000E+000	-6.0306793E-006	6.4043797E-007
2	0	0	1	1	4.225884893245166E+002	-1.7182362E-001	-1.7203513E-001	-3.836889767687032E-003	2.000000000000000E+000	-6.0436951E-006	6.6007982E-007
2	0	0	0	1	4.225918893244307E+002	-1.7522232E-001	-1.7543948E-001	-3.875374968386781E-003	2.000000000000000E+000	-6.0568386E-006	6.7989373E-007
2	0	0	0	1	4.225950893243498E+002	-1.7842111E-001	-1.7863695E-001	-3.910527918378627E-003	2.000000000000000E+000	-6.0693269E-006	6.9856480E-007
2	0	0	1	1	4.225984893242639E+002	-1.8181981E-001	-1.8204103E-001	-3.955574178659528E-003	2.000000000000000E+000	-6.0827379E-006	7.2007680E-007
2	0	0	0	1	4.226018893241780E+002	-1.8521850E-001	-1.8545011E-001	-3.994753518963973E-003	2.000000000000000E+000	-6.0962852E-006	7.4082749E-007
2	0	0	0	1	4.226050893240972E+002	-1.8841730E-001	-1.8863688E-001	-4.034839432855111E-003	2.000000000000000E+000	-6.1091637E-006	7.6111957E-007
2	0	0	1	1	4.226084893240113E+002	-1.9181600E-001	-1.9201428E-001	-4.072868239624447E-003	2.000000000000000E+000	-6.1229848E-006	7.8204886E-007
2	0	0	0	1	4.226118893239254E+002	-1.9521472E-001	-1.9542259E-001	-4.114603628992582E-003	2.000000000000000E+000	-6.1369356E-006	8.0408648E-007
2	0	0	0	1	4.226150893238446E+002	-1.9841348E-001	-1.9861469E-001	-4.152843342429442E-003	2.000000000000000E+000	-6.1501955E-006	8.2481569E-007
2	0	0	1	1	4.226184893237587E+002	-2.0181218E-001	-2.0202783E-001	-4.198424535449384E-003	2.000000000000000E+000	-6.1644323E-006	8.4819857E-007
2	0	0	0	1	4.226218893236728E+002	-2.0521089E-001	-2.0540321E-001	-4.240936675675260E-003	2.000000000000000E+000	-6.1788123E-006	8.7110197E-007
2	0	0	0	1	4.226250893235920E+002	-2.0840967E-001	-2.0860817E-001	-4.281402636297574E-003	2.000000000000000E+000	-6.1924802E-006	8.9313556E-007
2	0	0	1	1	4.226284893235061E+002	-2.1180838E-001	-2.1204202E-001	-4.331453241320547E-003	2.000000000000000E+000	-6.2071595E-006	9.1845010E-007
2	0	0	0	1	4.226318893234202E+002	-2.1520707E-001	-2.1542643E-001	-4.376123271261655E-003	2.000000000000000E+000	-6.2219929E-006	9.4273264E-007
2	0	0	0	1	4.226350893233393E+002	-2.1840587E-001	-2.1862030E-001	-4.418318732374860E-003	2.000000000000000E+000	-6.2360950E-006	9.6593419E-007
2	0	0	1	1	4.226384893232535E+002	-2.2180457E-001	-2.2202647E-001	-4.466980740683843E-003	2.000000000000000E+000	-6.2512372E-006	9.9178794E-007
2	0	0	0	1	4.226418893231676E+002	-2.2520328E-001	-2.2543997E-001	-4.515638186906777E-003	2.000000000000000E+000	-6.2665390E-006	1.0180053E-006
2	0	0	0	1	4.226450893230867E+002	-2.2840205E-001	-2.2863181E-001	-4.560771802031599E-003	2.000000000000000E+000	-6.2810927E-006	1.0427375E-006
2	0	0	1	1	4.226484893230008E+002	-2.3180075E-001	-2.3204623E-001	-4.611261306308734E-003	2.000000000000000E+000	-6.2967242E-006	1.0700259E-006
2	0	0	0	1	4.226518893229149E+002	-2.3519945E-001	-2.3541956E-001	-4.661183371475391E-003	2.000000000000000E+000	-6.3125203E-006	1.0973337E-006
2	0	0	0	1	4.226550893228341E+002	-2.3839824E-001	-2.3861597E-001	-4.711399318906241E-003	2.000000000000000E+000	-6.3275493E-006	1.1242151E-006
2	0	0	1	1	4.226584893227482E+002	-2.4179694E-001	-2.4199796E-001	-4.764064153247698E-003	2.000000000000000E+000	-6.3436969E-006	1.1528938E-006
2	0	0	0	1	4.226618893226623E+002	-2.4519566E-001	-2.4541253E-001	-4.823737436284642E-003	2.000000000000000E+000	-6.3600310E-006	1.1838056E-006
2	0	0	0	1	4.226650893225815E+002	-2.4839443E-001	-2.4861659E-001	-4.879654869970770E-003	2.000000000000000E+000	-6.3755888E-006	1.2131632E-006
2	0	0	1	1	4.226684893224956E+002	-2.5179315E-001	-2.5201270E-001	-4.935897278179863E-003	2.000000000000000E+000	-6.3923144E-006	1.2439089E-006
2	0	0	0	1	4.226717893224122E+002	-2.5512519E-001	-2.5534958E-001	-5.000651891805326E-003	2.000000000000000E+000	-6.4087390E-006	1.2769143E-006
2	0	0	0	1	4.226750893223289E+002	-2.5845727E-001	-2.5866878E-001	-5.063676225533217E-003	2.000000000000000E+000	-6.4253868E-006	1.3098149E-006
2	0	0	1	1	4.226784893222430E+002	-2.6185599E-001	-2.6205003E-001	-5.121335571675448E-003	2.000000000000000E+000	-6.4427350E-006	1.3420462E-006
2	0	0	1	1	4.226816893221621E+002	-2.6505476E-001	-2.6528025E-001	-5.183161469600836E-003	2.000000000000000E+000	-6.4592568E-006	1.3749903E-006
2	0	0	0	1	4.226850893220762E+002	-2.6845345E-001	-2.6867381E-001	-5.247227423448433E-003	2.000000000000000E+000	-6.4770279E-006	1.4097926E-006
2	0	0	1	1	4.226884893219903E+002	-2.7185217E-001	-2.7205950E-001	-5.312066718336894E-003	2.000000000000000E+000	-6.4950127E-006	1.4451982E-006
2	0	0	1	1	4.226916893219095E+002	-2.7505094E-001	-2.7525756E-001	-5.375880092469754E-003	2.000000000000000E+000	-6.5121462E-006	1.4797516E-006
2	0	0	0	1	4.226950893218236E+002	-2.7844962E-001	-2.7864301E-001	-5.442842608742157E-003	2.000000000000000E+000	-6.5305771E-006	1.5166100E-006
2	0	0	1	1	4.226984893217377E+002	-2.8184831E-001	-2.8204075E-001	-5.514194651065445E-003	2.000000000000000E+000	-6.5492395E-006	1.5552275E-006
2	0	0	1	1	4.227016893216569E+002	-2.8504708E-001	-2.8521988E-001	-5.581513171394673E-003	2.000000000000000E+000	-6.5670279E-006	1.5919585E-006
2	0	0	0	1	4.227050893215710E+002	-2.8844583E-001	-2.8864953E-001	-5.657992717412227E-003	2.000000000000000E+000	-6.5861782E-006	1.6331769E-006
2	0	0	1	1	4.227084893214851E+002	-2.9184452E-001	-2.9203749E-001	-5.730176056446615E-003	2.000000000000000E+000	-6.6055741E-006	1.6734263E-006
2	0	0	1	1	4.227116893214043E+002	-2.9504332E-001	-2.9524815E-001	-5.798683764260210E-003	2.000000000000000E+000	-6.6240536E-006	1.7120507E-006
2	0	0	0	1	4.227150893213184E+002	-2.9844201E-001	-2.9867363E-001	-5.876250423959062E-003	2.000000000000000E+000	-6.6439434E-006	1.7550810E-006
2	0	0	1	1	4.227184893212325E+002	-3.0184072E-001	-3.0209050E-001	-5.949903503703058E-003	2.000000000000000E+000	-6.6640828E-006	1.7974093E-006
2	0	0	1	1	4.227216893211516E+002	-3.0503950E-001	-3.0526489E-001	-6.017879691595833E-003	2.000000000000000E+000	-6.6832640E-006	1.8370474E-006
2	0	0	0	1	4.227250893210658E+002	-3.0843821E-001	-3.0866343E-001	-6.095045887620179E-003	2.000000000000000E+000	-6.7038977E-006	1.8813178E-006
2	0	0	1	1	4.227284893209799E+002	-3.1183690E-001	-3.1209436E-001	-6.170526269246093E-003	2.000000000000000E+000	-6.7247856E-006	1.9257864E-006
2	0	0	1	1	4.227316893208990E+002	-3.1503567E-001	-3.1527376E-001	-6.237449415736313E-003	2.000000000000000E+000	-6.7446740E-006	1.9665042E-006
2	0	0	0	1	4.227350893208131E+002	-3.1843439E-001	-3.1869182E-001	-6.312382694159152E-003	2.000000000000000E+000	-6.7660512E-006	2.0117047E-006
2	0	0	1	1	4.227384893207272E+002	-3.2183307E-001	-3.2204863E-001	-6.384232787240735E-003	2.000000000000000E+000	-6.7876699E-006	2.0560335E-006
2	0	0	1	1	4.227416893206464E+002	-3.2503185E-001	-3.2524139E-001	-6.452869175579192E-003	2.000000000000000E+000	-6.8082445E-006	2.0987402E-006
2	0	0	0	1	4.227450893205605E+002	-3.2843059E-001	-3.2865939E-001	-6.524605880561779E-003	2.000000000000000E+000	-6.8303457E-006	2.1443730E-006
2	0	0	1	1	4.227484893204746E+002	-3.3182928E-001	-3.3206373E-001	-6.599211494661472E-003	2.000000000000000E+000	-6.8526924E-006	2.1913588E-006
2	0	0	1	1	4.227516893203938E+002	-3.3502808E-001	-3.3525661E-001	-6.667282718990447E-003	2.000000000000000E+000	-6.8739528E-006	2.2352506E-006
2	0	0	0	1	4.227550893203079E+002	-3.3842677E-001	-3.3865574E-001	-6.736717526958563E-003	2.000000000000000E+000	-6.8967788E-006	2.2814281E-006
2	0	0	1	1	4.227584893202220E+002	-3.4182549E-001	-3.4208035E-001	-6.805843601493194E-003	2.000000000000000E+000	-6.9198377E-006	2.3281455E-006
2	0	0	1	1	4.227616893201412E+002	-3.4502426E-001	-3.4528220E-001	-6.870731775294778E-003	2.000000000000000E+000	-6.9417556E-006	2.3723414E-006
2	0	0	0	1	4.227650893200553E+002	-3.4842297E-001	-3.4867284E-001	-6.934782485101698E-003	2.000000000000000E+000	-6.9652647E-006	2.4179703E-006
2	0	0	1	1	4.227684893199694E+002	-3.5182163E-001	-3.5208306E-001	-7.001212503140161E-003	2.000000000000000E+000	-6.9889907E-006	2.4650083E-006
2	0	0	1	1	4.227716893198885E+002	-3.5502046E-001	-3.5528126E-001	-7.064569096837642E-003	2.000000000000000E+000	-7.0115302E-006	2.5099091E-006
2	0	0	0	1	4.227750893198026E+002	-3.5841918E-001	-3.5867369E-001	-7.127521309424414E-003	2.000000000000000E+000	-7.0356955E-006	2.5564543E-006
2	0	0	1	1	4.227784893197168E+002	-3.6181787E-001	-3.6205274E-001	-7.189499940189609E-003	2.000000000000000E+000	-7.0600681E-006	2.6029782E-006
2	0	0	1	1	4.227816893196359E+002	-3.6501667E-001	-3.6526993E-001	-7.247100753132452E-003	2.000000000000000E+000	-7.0831979E-006	2.6471480E-006
2	0	0	0	1	4.227850893195500E+002	-3.6841533E-001	-3.6865014E-001	-7.304431745008819E-003	2.000000000000000E+000	-7.1079735E-006	2.6927798E-006
2	0	0	1	1	4.227884893194641E+002	-3.7181404E-001	-3.7206060E-001	-7.365929318439164E-003	2.000000000000000E+000	-7.1329455E-006	2.7405720E-006
2	0	0	1	1	4.227916893193833E+002	-3.7501284E-001	-3.7526047E-001	-7.420957807516976E-003	2.000000000000000E+000	-7.1566387E-006	2.7847921E-006
2	0	0	0	1	4.227950893192974E+002	-3.7841156E-001	-3.7866306E-001	-7.478219382998433E-003	2.000000000000000E+000	-7.1820082E-006	2.8317254E-006
2	0	0	1	1	4.227984893192115E+002	-3.8181028E-001	-3.8207439E-001	-7.538590787044080E-003	2.000000000000000E+000	-7.2075704E-006	2.8803024E-006
2	0	0	1	1	4.228016893191307E+002	-3.8500905E-001	-3.8529000E-001	-7.594823939083048E-003	2.000000000000000E+000	-7.2318171E-006	2.9262096E-006
2	0	0	0	1	4.228050893190448E+002	-3.8840771E-001	-3.8866612E-001	-7.647096198585720E-003	2.000000000000000E+000	-7.2577664E-006	2.9721673E-006
2	0	0	1	1	4.228084893189589E+002	-3.9180639E-001	-3.9207938E-001	-7.702604105118874E-003	2.000000000000000E+000	-7.2838948E-006	3.0200322E-006
2	0	0	1	1	4.228116893188781E+002	-3.9500517E-001	-3.9528093E-001	-7.759052994394250E-003	2.000000000000000E+000	-7.3086676E-006	3.0670058E-006
2	0	0	0	1	4.228150893187922E+002	-3.9840388E-001	-3.9867696E-001	-7.812868914212824E-003	2.000000000000000E+000	-7.3351803E-006	3.1148109E-006
2	0	0	1	1	4.228184893187063E+002	-4.0180263E-001	-4.0206191E-001	-7.867954571823529E-003	2.000000000000000E+000	-7.3618712E-006	3.1634049E-006
2	0	0	1	1	4.228216893186254E+002	-4.0500140E-001	-4.0524945E-001	-7.914506026766813E-003	2.000000000000000E+000	-7.3871565E-006	3.2073492E-006
2	0	0	0	1	4.228250893185395E+002	-4.0840012E-001	-4.0866679E-001	-7.972523580550225E-003	2.000000000000000E+000	-7.4142035E-006	3.2581056E-006
2	0	0	1	1	4.228284893184536E+002	-4.1179880E-001	-4.1204891E-001	-8.030015095937412E-003	2.000000000000000E+000	-7.4414438E-006	3.3087590E-006
2	0	0	1	1	4.228316893183728E+002	-4.1499761E-001	-4.1524538E-001	-8.085149626579857E-003	2.000000000000000E+000	-7.4672616E-006	3.3573210E-006
2	0	0	0	1	4.228350893182869E+002	-4.1839629E-001	-4.1866535E-001	-8.140803159949403E-003	2.000000000000000E+000	-7.4948857E-006	3.4082723E-006
2	0	0	1	1	4.228384893182010E+002	-4.2179498E-001	-4.2206347E-001	-8.201109224864899E-003	2.000000000000000E+000	-7.5227026E-006	3.4613886E-006
2	0	0	1	1	4.228416893181202E+002	-4.2499375E-001	-4.2527506E-001	-8.255759068257845E-003	2.000000000000000E+000	-7.5490670E-006	3.5109683E-006
2	0	0	0	1	4.228450893180343E+002	-4.2839247E-001	-4.2863247E-001	-8.316492475993670E-003	2.000000000000000E+000	-7.5772787E-006	3.5647188E-006
2	0	0	1	1	4.228483893179509E+002	-4.3174839E-001	-4.3199530E-001	-8.383546985701932E-003	2.000000000000000E+000	-7.6048632E-006	3.6216529E-006
2	0	0	1	1	4.228516893178676E+002	-4.3505663E-001	-4.3528077E-001	-8.442309433909639E-003	2.000000000000000E+000	-7.6326669E-006	3.6747749E-006
2	0	0	0	1	4.228550893177817E+002	-4.3845531E-001	-4.3870720E-001	-8.509253358533891E-003	2.000000000000000E+000	-7.6615215E-006	3.7330708E-006
2	0	0	0	1	4.228582893177008E+002	-4.4165412E-001	-4.4190049E-001	-8.564304588253425E-003	2.000000000000000E+000	-7.6888737E-006	3.7845705E-006
2	0	0	1	1	4.228616893176149E+002	-4.4505277E-001	-4.4528612E-001	-8.630819494949982E-003	2.000000000000000E+000	-7.7181448E-006	3.8431840E-006
2	0	0	0	1	4.228650893175291E+002	-4.4845149E-001	-4.4867525E-001	-8.693692164342778E-003	2.000000000000000E+000	-7.7476307E-006	3.9006445E-006
2	0	0	0	1	4.228682893174482E+002	-4.5165026E-001	-4.5186514E-001	-8.758869277335157E-003	2.000000000000000E+000	-7.7755876E-006	3.9578276E-006
2	0	0	1	1	4.228716893173623E+002	-4.5504898E-001	-4.5527717E-001	-8.827302512205863E-003	2.000000000000000E+000	-7.8055255E-006	4.0188693E-006
2	0	0	0	1	4.228750893172764E+002	-4.5844766E-001	-4.5870012E-001	-8.904348821427738E-003	2.000000000000000E+000	-7.8357016E-006	4.0844257E-006
2	0	0	0	1	4.228782893171956E+002	-4.6164647E-001	-4.6188915E-001	-8.973450483002410E-003	2.000000000000000E+000	-7.8643398E-006	4.1447393E-006
2	0	0	1	1	4.228816893171097E+002	-4.6504515E-001	-4.6528029E-001	-9.042490222539824E-003	2.000000000000000E+000	-7.8950043E-006	4.2072925E-006
2	0	0	0	1	4.228850893170238E+002	-4.6844387E-001	-4.6870092E-001	-9.120902798895242E-003	2.000000000000000E+000	-7.9259153E-006	4.2749757E-006
2	0	0	0	1	4.228882893169430E+002	-4.7164261E-001	-4.7189492E-001	-9.195574745535839E-003	2.000000000000000E+000	-7.9552565E-006	4.3393452E-006
2	0	0	1	1	4.228916893168571E+002	-4.7504133E-001	-4.7528076E-001	-9.270608463460440E-003	2.000000000000000E+000	-7.9866904E-006	4.4061417E-006
2	0	0	0	1	4.228950893167712E+002	-4.7844005E-001	-4.7869423E-001	-9.355696197599184E-003	2.000000000000000E+000	-8.0183927E-006	4.4785179E-006
2	0	0	0	1	4.228982893166904E+002	-4.8163882E-001	-4.8189515E-001	-9.432015847839169E-003	2.000000000000000E+000	-8.0484888E-006	4.5452425E-006
2	0	0	1	1	4.229016893166045E+002	-4.8503757E-001	-4.8528039E-001	-9.517390357177649E-003	2.000000000000000E+000	-8.0807467E-006	4.6186028E-006
2	0	0	0	1	4.229050893165186E+002	-4.8843628E-001	-4.8868340E-001	-9.604697809603130E-003	2.000000000000000E+000	-8.1132875E-006	4.6936566E-006
2	0	0	0	1	4.229082893164377E+002	-4.9163505E-001	-4.9187917E-001	-9.688328986279273E-003	2.000000000000000E+000	-8.1441922E-006	4.7654871E-006
2	0	0	1	1	4.229116893163518E+002	-4.9503377E-001	-4.9529013E-001	-9.776403382420529E-003	2.000000000000000E+000	-8.1773233E-006	4.8421562E-006
2	0	0	0	1	4.229150893162659E+002	-4.9843243E-001	-4.9868691E-001	-9.871333537982196E-003	2.000000000000000E+000	-8.2107617E-006	4.9227046E-006
2	0	0	0	1	4.229182893161851E+002	-5.0163120E-001	-5.0189453E-001	-9.959947138850081E-003	2.000000000000000E+000	-8.2425277E-006	4.9988430E-006
2	0	0	1	1	4.229216893160992E+002	-5.0502992E-001	-5.0527930E-001	-1.005387511104341E-002	2.000000000000000E+000	-8.2765946E-006	5.0800149E-006
2	0	0	0	1	4.229250893160133E+002	-5.0842863E-001	-5.0869149E-001	-1.015105944619182E-002	2.000000000000000E+000	-8.3109799E-006	5.1637576E-006
2	0	0	0	1	4.229282893159325E+002	-5.1162744E-001	-5.1190150E-001	-1.024463798979319E-002	2.000000000000000E+000	-8.3436507E-006	5.2442456E-006
2	0	0	1	1	4.229466893154677E+002	-5.3005081E-001	-5.3025222E-001	-1.082496572984604E-002	2.000000000000000E+000	-8.5347465E-006	5.7399620E-006
2	0	0	0	1	4.229650893150028E+002	-5.4841340E-001	-5.4864848E-001	-1.142729493864564E-002	2.000000000000000E+000	-8.7280450E-006	6.2695681E-006
2	0	0	0	1	4.229682893149220E+002	-5.5161226E-001	-5.5181378E-001	-1.154148631054946E-002	2.000000000000000E+000	-8.7648486E-006	6.3687512E-006
2	0	0	1	1	4.229716893148361E+002	-5.5501086E-001	-5.5523378E-001	-1.167318347349164E-002	2.000000000000000E+000	-8.8043744E-006	6.4813457E-006
2	0	0	0	1	4.229750893147502E+002	-5.5840957E-001	-5.5863971E-001	-1.179773682063873E-002	2.000000000000000E+000	-8.8443276E-006	6.5906843E-006
2	0	0	0	1	4.229782893146694E+002	-5.6160831E-001	-5.6184447E-001	-1.191514392521631E-002	2.000000000000000E+000	-8.8823235E-006	6.6944576E-006
2	0	0	1	1	4.229816893145835E+002	-5.6500703E-001	-5.6523132E-001	-1.204618021996184E-002	2.000000000000000E+000	-8.9231198E-006	6.8088784E-006
2	0	0	0	1	4.229850893144976E+002	-5.6840575E-001	-5.6865048E-001	-1.218147524086816E-002	2.000000000000000E+000	-8.9643618E-006	6.9270018E-006
2	0	0	0	1	4.229882893144168E+002	-5.7160455E-001	-5.7184541E-001	-1.230946045883080E-002	2.000000000000000E+000	-9.0035983E-006	7.0391084E-006
2	0	0	1	1	4.229916893143309E+002	-5.7500327E-001	-5.7523185E-001	-1.244704363246760E-002	2.000000000000000E+000	-9.0457452E-006	7.1599361E-006
2	0	0	0	1	4.229950893142450E+002	-5.7840192E-001	-5.7863206E-001	-1.258578354621326E-002	2.000000000000000E+000	-9.0883550E-006	7.2825378E-006
2	0	0	0	1	4.229982893141641E+002	-5.8160073E-001	-5.8181328E-001	-1.271680705892020E-002	2.000000000000000E+000	-9.1288957E-006	7.3988072E-006
2	0	0	1	1	4.230016893140782E+002	-5.8499944E-001	-5.8524072E-001	-1.286374850048251E-002	2.000000000000000E+000	-9.1724451E-006	7.5283892E-006
2	0	0	0	1	4.230050893139924E+002	-5.8839810E-001	-5.8862638E-001	-1.301255719093505E-002	2.000000000000000E+000	-9.2164864E-006	7.6595343E-006
2	0	0	0	1	4.230082893139115E+002	-5.9159690E-001	-5.9181327E-001	-1.314853894449090E-002	2.000000000000000E+000	-9.2583959E-006	7.7814793E-006
2	0	0	1	1	4.230116893138256E+002	-5.9499562E-001	-5.9523439E-001	-1.330458254584904E-002	2.000000000000000E+000	-9.3034269E-006	7.9193451E-006
2	0	0	0	1	4.230148893137448E+002	-5.9819949E-001	-5.9840894E-001	-1.344769307923763E-002	2.000000000000000E+000	-9.3462704E-006	8.0472200E-006
2	0	0	1	1	4.230165893137018E+002	-5.9982693E-001	-6.0002363E-001	-1.350711751729250E-002	2.000000000000000E+000	-9.3691824E-006	8.1045901E-006