EC-Lab ASCII FILE
Nb header lines : 53                          

Cyclic Voltammetry

Run on channel : 1 (SN 0696)
User : 
Electrode connection : standard
Ewe ctrl range : min = -10.00 V, max = 10.00 V
Ewe,I filtering : 50 kHz
Channel : Grounded
Acquisition started on : 05/17/2017 12:53:20
Saved on :
	File : 100 uM RS 10mM PB_01_CV_C01.mpr
	Directory : \\userfs\st659\w2k\EC-Lab\Data\ITO Characterisation 17-5-17\
	Host : 144.32.136.43
Device : SP-300 (SN 0182)
Address : USB
EC-Lab for windows v10.44 (software)
Internet server v10.44 (firmware)
Command interpretor v10.44 (firmware)
Electrode material : 
Initial state : 
Electrolyte : 
Comments : 
Cable : standard
Electrode surface area : 0.001 cm²
Characteristic mass : 0.001 g
Equivalent Weight : 0.000 g/eq.
Density : 0.000 g/cm3
Ei (V)              0.000               
vs.                 Eoc                 
dE/dt               20.000              
dE/dt unit          mV/s                
E1 (V)              0.100               
vs.                 Ref                 
Step percent        50                  
N                   10                  
E range min (V)     -10.000             
E range max (V)     10.000              
I Range             Auto                
I Range min         Unset               
I Range max         Unset               
I Range init        Unset               
Bandwidth           8                   
E2 (V)              -0.600              
vs.                 Ref                 
nc cycles           2                   
Reverse Scan        1                   
Ef (V)              0.000               
vs.                 Eoc                 

mode	ox/red	error	control changes	counter inc.	time/s	control/V	Ewe/V	<I>/mA	cycle number	(Q-Qo)/C	P/W
2	1	0	0	1	5.213079868306522E+001	-5.9982693E-001	-6.0003507E-001	-8.944135097165906E-003	2.000000000000000E+000	-1.4236594E-004	5.3667945E-006
2	1	0	0	1	5.222249868074869E+001	-5.9799439E-001	-5.9821433E-001	-8.772494098683845E-003	2.000000000000000E+000	-1.4317091E-004	5.2478317E-006
2	1	0	1	1	5.238909867654002E+001	-5.9466231E-001	-5.9490341E-001	-8.520412351906821E-003	2.000000000000000E+000	-1.4460787E-004	5.0688222E-006
2	1	0	0	1	5.255569867233135E+001	-5.9133023E-001	-5.9157193E-001	-8.295808345358646E-003	2.000000000000000E+000	-1.4600529E-004	4.9075675E-006
2	1	0	1	1	5.272229866812268E+001	-5.8799821E-001	-5.8821291E-001	-8.093600202971125E-003	2.000000000000000E+000	-1.4736729E-004	4.7607600E-006
2	1	0	0	1	5.288889866391401E+001	-5.8466619E-001	-5.8488423E-001	-7.903759419709885E-003	2.000000000000000E+000	-1.4869671E-004	4.6227842E-006
2	1	0	1	1	5.305549865970534E+001	-5.8133411E-001	-5.8154625E-001	-7.726340019671984E-003	2.000000000000000E+000	-1.4999555E-004	4.4932240E-006
2	1	0	0	1	5.322209865549667E+001	-5.7800245E-001	-5.7823771E-001	-7.558074911557744E-003	2.000000000000000E+000	-1.5126567E-004	4.3703640E-006
2	1	0	1	1	5.338869865128800E+001	-5.7467043E-001	-5.7487792E-001	-7.399379041498788E-003	2.000000000000000E+000	-1.5250858E-004	4.2537395E-006
2	1	0	0	1	5.355529864707933E+001	-5.7133836E-001	-5.7157087E-001	-7.246324640005158E-003	2.000000000000000E+000	-1.5372553E-004	4.1417879E-006
2	1	0	1	1	5.372189864287066E+001	-5.6800634E-001	-5.6821269E-001	-7.103032158947156E-003	2.000000000000000E+000	-1.5491789E-004	4.0360328E-006
2	1	0	0	1	5.388849863866199E+001	-5.6467420E-001	-5.6491542E-001	-6.963602260461648E-003	2.000000000000000E+000	-1.5608675E-004	3.9338461E-006
2	1	0	1	1	5.405509863445332E+001	-5.6134218E-001	-5.6155318E-001	-6.830582064746363E-003	2.000000000000000E+000	-1.5723288E-004	3.8357352E-006
2	1	0	0	1	5.422179863024212E+001	-5.5800831E-001	-5.5823648E-001	-6.702875573004849E-003	2.000000000000000E+000	-1.5835793E-004	3.7417897E-006
2	1	0	1	1	5.438839862603345E+001	-5.5467635E-001	-5.5490243E-001	-6.578351734784271E-003	2.000000000000000E+000	-1.5946142E-004	3.6503434E-006
2	1	0	0	1	5.455499862182478E+001	-5.5134428E-001	-5.5155468E-001	-6.457767008804455E-003	2.000000000000000E+000	-1.6054444E-004	3.5618116E-006
2	1	0	1	1	5.472159861761611E+001	-5.4801214E-001	-5.4821885E-001	-6.341960276811073E-003	2.000000000000000E+000	-1.6160775E-004	3.4767822E-006
2	1	0	0	1	5.488819861340744E+001	-5.4468018E-001	-5.4489011E-001	-6.230142599077004E-003	2.000000000000000E+000	-1.6265224E-004	3.3947431E-006
2	1	0	1	1	5.505479860919877E+001	-5.4134804E-001	-5.4156142E-001	-6.122111514533971E-003	2.000000000000000E+000	-1.6367843E-004	3.3154995E-006
2	1	0	0	1	5.522139860499010E+001	-5.3801596E-001	-5.3821683E-001	-6.016699876679757E-003	2.000000000000000E+000	-1.6468677E-004	3.2382891E-006
2	1	0	1	1	5.538799860078143E+001	-5.3468436E-001	-5.3490305E-001	-5.914102246282832E-003	2.000000000000000E+000	-1.6567785E-004	3.1634713E-006
2	1	0	0	1	5.555459859657276E+001	-5.3135234E-001	-5.3156626E-001	-5.813460797660742E-003	2.000000000000000E+000	-1.6665203E-004	3.0902397E-006
2	1	0	1	1	5.572119859236409E+001	-5.2802026E-001	-5.2823997E-001	-5.715597857313463E-003	2.000000000000000E+000	-1.6760960E-004	3.0192073E-006
2	1	0	0	1	5.588779858815542E+001	-5.2468818E-001	-5.2492267E-001	-5.620945305041300E-003	2.000000000000000E+000	-1.6855120E-004	2.9505616E-006
2	1	0	1	1	5.605439858394675E+001	-5.2135611E-001	-5.2157795E-001	-5.528516619167145E-003	2.000000000000000E+000	-1.6947721E-004	2.8835525E-006
2	1	0	0	1	5.622099857973808E+001	-5.1802403E-001	-5.1825410E-001	-5.437793266845431E-003	2.000000000000000E+000	-1.7038798E-004	2.8181587E-006
2	1	0	1	1	5.638759857552941E+001	-5.1469201E-001	-5.1492149E-001	-5.349872329030447E-003	2.000000000000000E+000	-1.7128384E-004	2.7547642E-006
2	1	0	0	1	5.655419857132074E+001	-5.1136035E-001	-5.1159120E-001	-5.262752840035925E-003	2.000000000000000E+000	-1.7216518E-004	2.6923781E-006
2	1	0	1	1	5.672079856711207E+001	-5.0802833E-001	-5.0825244E-001	-5.179563173606606E-003	2.000000000000000E+000	-1.7303234E-004	2.6325256E-006
2	1	0	0	1	5.688739856290340E+001	-5.0469625E-001	-5.0492471E-001	-5.095960936477212E-003	2.000000000000000E+000	-1.7388559E-004	2.5730767E-006
2	1	0	1	1	5.705399855869473E+001	-5.0136423E-001	-5.0159031E-001	-5.014526231022311E-003	2.000000000000000E+000	-1.7472511E-004	2.5152378E-006
2	1	0	0	1	5.722059855448606E+001	-4.9803215E-001	-4.9824688E-001	-4.934568809026221E-003	2.000000000000000E+000	-1.7555116E-004	2.4586336E-006
2	1	0	1	1	5.738719855027739E+001	-4.9470007E-001	-4.9491674E-001	-4.856838950504136E-003	2.000000000000000E+000	-1.7636410E-004	2.4037308E-006
2	1	0	0	1	5.755379854606872E+001	-4.9136847E-001	-4.9157548E-001	-4.780209550416047E-003	2.000000000000000E+000	-1.7716420E-004	2.3498337E-006
2	1	0	1	1	5.772039854186005E+001	-4.8803636E-001	-4.8825845E-001	-4.706255724284146E-003	2.000000000000000E+000	-1.7795178E-004	2.2978691E-006
2	1	0	0	1	5.788699853765138E+001	-4.8470438E-001	-4.8491526E-001	-4.632274634345780E-003	2.000000000000000E+000	-1.7872706E-004	2.2462607E-006
2	1	0	1	1	5.805359853344271E+001	-4.8137227E-001	-4.8160392E-001	-4.560435213565063E-003	2.000000000000000E+000	-1.7949019E-004	2.1963235E-006
2	1	0	0	1	5.822019852923404E+001	-4.7804022E-001	-4.7825950E-001	-4.488912709383147E-003	2.000000000000000E+000	-1.8024135E-004	2.1468652E-006
2	1	0	1	1	5.838679852502537E+001	-4.7470817E-001	-4.7492847E-001	-4.419367578900643E-003	2.000000000000000E+000	-1.8098077E-004	2.0988834E-006
2	1	0	0	1	5.855339852081670E+001	-4.7137651E-001	-4.7161648E-001	-4.351101983178673E-003	2.000000000000000E+000	-1.8170876E-004	2.0520513E-006
2	1	0	1	1	5.871999851660803E+001	-4.6804443E-001	-4.6826312E-001	-4.283047169675501E-003	2.000000000000000E+000	-1.8242537E-004	2.0055929E-006
2	1	0	0	1	5.888659851239936E+001	-4.6471238E-001	-4.6491155E-001	-4.215933302631772E-003	2.000000000000000E+000	-1.8313073E-004	1.9600361E-006
2	1	0	1	1	5.905319850819069E+001	-4.6138033E-001	-4.6158487E-001	-4.152448909303649E-003	2.000000000000000E+000	-1.8382519E-004	1.9167076E-006
2	1	0	0	1	5.921979850398202E+001	-4.5804822E-001	-4.5825103E-001	-4.088749671409174E-003	2.000000000000000E+000	-1.8450907E-004	1.8736738E-006
2	1	0	1	1	5.938639849977335E+001	-4.5471618E-001	-4.5490220E-001	-4.025908682798965E-003	2.000000000000000E+000	-1.8518241E-004	1.8313947E-006
2	1	0	0	1	5.955299849556468E+001	-4.5138413E-001	-4.5157748E-001	-3.964426538208499E-003	2.000000000000000E+000	-1.8584538E-004	1.7902457E-006
2	1	0	1	1	5.971959849135601E+001	-4.4805253E-001	-4.4824937E-001	-3.903199705563335E-003	2.000000000000000E+000	-1.8649816E-004	1.7496068E-006
2	1	0	0	1	5.988619848714734E+001	-4.4472042E-001	-4.4493932E-001	-3.843693392374378E-003	2.000000000000000E+000	-1.8714092E-004	1.7102103E-006
2	1	0	1	1	6.005279848293867E+001	-4.4138837E-001	-4.4160777E-001	-3.785572710465383E-003	2.000000000000000E+000	-1.8777384E-004	1.6717383E-006
2	1	0	0	1	6.021939847873000E+001	-4.3805632E-001	-4.3824816E-001	-3.727274114953223E-003	2.000000000000000E+000	-1.8839707E-004	1.6334710E-006
2	1	0	1	1	6.038599847452133E+001	-4.3472427E-001	-4.3490455E-001	-3.669958829979406E-003	2.000000000000000E+000	-1.8901067E-004	1.5960818E-006
2	1	0	0	1	6.055259847031266E+001	-4.3139267E-001	-4.3160051E-001	-3.613991393089516E-003	2.000000000000000E+000	-1.8961486E-004	1.5598006E-006
2	1	0	1	1	6.071919846610399E+001	-4.2806059E-001	-4.2826089E-001	-3.559503387174492E-003	2.000000000000000E+000	-1.9020986E-004	1.5243961E-006
2	1	0	0	1	6.088579846189532E+001	-4.2472854E-001	-4.2493808E-001	-3.505730957844282E-003	2.000000000000000E+000	-1.9079582E-004	1.4897186E-006
2	1	0	1	1	6.105239845768665E+001	-4.2139643E-001	-4.2160386E-001	-3.451847836698371E-003	2.000000000000000E+000	-1.9137282E-004	1.4553124E-006
2	1	0	0	1	6.121899845347798E+001	-4.1806439E-001	-4.1829440E-001	-3.398946184181705E-003	2.000000000000000E+000	-1.9194094E-004	1.4217602E-006
2	1	0	1	1	6.138559844926931E+001	-4.1473234E-001	-4.1494125E-001	-3.346697162352200E-003	2.000000000000000E+000	-1.9250029E-004	1.3886827E-006
2	1	0	0	1	6.155219844506064E+001	-4.1140023E-001	-4.1162476E-001	-3.295234831227900E-003	2.000000000000000E+000	-1.9305102E-004	1.3564003E-006
2	1	0	1	1	6.171879844085197E+001	-4.0806815E-001	-4.0828544E-001	-3.244634570841475E-003	2.000000000000000E+000	-1.9359327E-004	1.3247370E-006
2	1	0	1	1	6.188549843664077E+001	-4.0473431E-001	-4.0494755E-001	-3.194757220779991E-003	2.000000000000000E+000	-1.9412750E-004	1.2937091E-006
2	1	0	0	1	6.205209843243210E+001	-4.0140224E-001	-4.0163338E-001	-3.145872339968592E-003	2.000000000000000E+000	-1.9465316E-004	1.2634873E-006
2	1	0	1	1	6.221869842822343E+001	-3.9807016E-001	-3.9830747E-001	-3.097189126805584E-003	2.000000000000000E+000	-1.9517067E-004	1.2336336E-006
2	1	0	0	1	6.238529842401476E+001	-3.9473814E-001	-3.9498657E-001	-3.049516294365444E-003	2.000000000000000E+000	-1.9568016E-004	1.2045180E-006
2	1	0	1	1	6.255189841980609E+001	-3.9140606E-001	-3.9164212E-001	-3.001306843204155E-003	2.000000000000000E+000	-1.9618166E-004	1.1754382E-006
2	1	0	0	1	6.271849841559742E+001	-3.8807401E-001	-3.8830510E-001	-2.954179718760212E-003	2.000000000000000E+000	-1.9667525E-004	1.1471230E-006
2	1	0	1	1	6.288509841138875E+001	-3.8474238E-001	-3.8498145E-001	-2.906801472296890E-003	2.000000000000000E+000	-1.9716095E-004	1.1190647E-006
2	1	0	0	1	6.305169840718008E+001	-3.8141030E-001	-3.8163495E-001	-2.861130783348466E-003	2.000000000000000E+000	-1.9763890E-004	1.0919075E-006
2	1	0	1	1	6.321829840297141E+001	-3.7807828E-001	-3.7828350E-001	-2.816188640913543E-003	2.000000000000000E+000	-1.9810929E-004	1.0653177E-006
2	1	0	0	1	6.338489839876274E+001	-3.7474623E-001	-3.7494862E-001	-2.770706609212907E-003	2.000000000000000E+000	-1.9857215E-004	1.0388726E-006
2	1	0	1	1	6.355149839455407E+001	-3.7141412E-001	-3.7160912E-001	-2.725979532752307E-003	2.000000000000000E+000	-1.9902751E-004	1.0129988E-006
2	1	0	0	1	6.371809839034540E+001	-3.6808205E-001	-3.6829159E-001	-2.681930994543337E-003	2.000000000000000E+000	-1.9947547E-004	9.8773262E-007
2	1	0	1	1	6.388469838613673E+001	-3.6475044E-001	-3.6496121E-001	-2.638059819048431E-003	2.000000000000000E+000	-1.9991612E-004	9.6278950E-007
2	1	0	0	1	6.405129838192806E+001	-3.6141840E-001	-3.6163989E-001	-2.594782092869501E-003	2.000000000000000E+000	-2.0034947E-004	9.3837673E-007
2	1	0	1	1	6.421789837771939E+001	-3.5808632E-001	-3.5832858E-001	-2.551141450126826E-003	2.000000000000000E+000	-2.0077563E-004	9.1414688E-007
2	1	0	0	1	6.438449837351072E+001	-3.5475427E-001	-3.5499319E-001	-2.508079667913301E-003	2.000000000000000E+000	-2.0119456E-004	8.9035120E-007
2	1	0	1	1	6.455109836930205E+001	-3.5142219E-001	-3.5166150E-001	-2.465303711732647E-003	2.000000000000000E+000	-2.0160635E-004	8.6695240E-007
2	1	0	0	1	6.471769836509338E+001	-3.4809014E-001	-3.4829739E-001	-2.422933176165709E-003	2.000000000000000E+000	-2.0201103E-004	8.4390132E-007
2	1	0	1	1	6.488439836088219E+001	-3.4475634E-001	-3.4496623E-001	-2.380987437276990E-003	2.000000000000000E+000	-2.0240892E-004	8.2136029E-007
2	1	0	0	1	6.505099835667352E+001	-3.4142432E-001	-3.4164241E-001	-2.339793647134842E-003	2.000000000000000E+000	-2.0279967E-004	7.9937274E-007
2	1	0	1	1	6.521759835246485E+001	-3.3809224E-001	-3.3828378E-001	-2.297162583858783E-003	2.000000000000000E+000	-2.0318340E-004	7.7709285E-007
2	1	0	0	1	6.538419834825618E+001	-3.3476016E-001	-3.3494130E-001	-2.256104967883413E-003	2.000000000000000E+000	-2.0356018E-004	7.5566271E-007
2	1	0	1	1	6.555079834404751E+001	-3.3142808E-001	-3.3161002E-001	-2.214767463547412E-003	2.000000000000000E+000	-2.0393010E-004	7.3443908E-007
2	1	0	0	1	6.571739833983884E+001	-3.2809603E-001	-3.2826540E-001	-2.173703087851621E-003	2.000000000000000E+000	-2.0429317E-004	7.1355151E-007
2	1	0	1	1	6.588399833563017E+001	-3.2476398E-001	-3.2492983E-001	-2.132580416543444E-003	2.000000000000000E+000	-2.0464938E-004	6.9293901E-007
2	1	0	0	1	6.605059833142150E+001	-3.2143232E-001	-3.2159641E-001	-2.091479903714607E-003	2.000000000000000E+000	-2.0499874E-004	6.7261243E-007
2	1	0	1	1	6.621719832721283E+001	-3.1810027E-001	-3.1827539E-001	-2.051296950968722E-003	2.000000000000000E+000	-2.0534135E-004	6.5287736E-007
2	1	0	0	1	6.638379832300416E+001	-3.1476822E-001	-3.1494796E-001	-2.010915960970860E-003	2.000000000000000E+000	-2.0567726E-004	6.3333391E-007
2	1	0	1	1	6.655039831879549E+001	-3.1143615E-001	-3.1162629E-001	-1.970663840584190E-003	2.000000000000000E+000	-2.0600644E-004	6.1411066E-007
2	1	0	0	1	6.671699831458682E+001	-3.0810410E-001	-3.0829546E-001	-1.930465657804713E-003	2.000000000000000E+000	-2.0632891E-004	5.9515378E-007
2	1	0	1	1	6.688359831037815E+001	-3.0477202E-001	-3.0496338E-001	-1.890527872256957E-003	2.000000000000000E+000	-2.0664472E-004	5.7654177E-007
2	1	0	0	1	6.705019830616948E+001	-3.0144042E-001	-3.0162981E-001	-1.851250742677888E-003	2.000000000000000E+000	-2.0695395E-004	5.5839240E-007
2	1	0	1	1	6.721679830196081E+001	-2.9810834E-001	-2.9830509E-001	-1.812208288596275E-003	2.000000000000000E+000	-2.0725664E-004	5.4059097E-007
2	1	0	0	1	6.738339829775214E+001	-2.9477629E-001	-2.9493713E-001	-1.773234416478437E-003	2.000000000000000E+000	-2.0755283E-004	5.2299265E-007
2	1	0	1	1	6.754999829354347E+001	-2.9144424E-001	-2.9159802E-001	-1.734603425820458E-003	2.000000000000000E+000	-2.0784256E-004	5.0580695E-007
2	1	0	0	1	6.771659828933480E+001	-2.8811219E-001	-2.8828898E-001	-1.696656291174575E-003	2.000000000000000E+000	-2.0812593E-004	4.8912733E-007
2	1	0	1	1	6.788319828512613E+001	-2.8478011E-001	-2.8496069E-001	-1.658727179464382E-003	2.000000000000000E+000	-2.0840295E-004	4.7267204E-007
2	1	0	0	1	6.804979828091746E+001	-2.8144848E-001	-2.8163049E-001	-1.621699039371600E-003	2.000000000000000E+000	-2.0867377E-004	4.5671990E-007
2	1	0	1	1	6.821639827670879E+001	-2.7811643E-001	-2.7826807E-001	-1.584666073689056E-003	2.000000000000000E+000	-2.0893841E-004	4.4096197E-007
2	1	0	0	1	6.838299827250012E+001	-2.7478436E-001	-2.7496922E-001	-1.548774669686185E-003	2.000000000000000E+000	-2.0919698E-004	4.2586535E-007
2	1	0	1	1	6.854959826829145E+001	-2.7145231E-001	-2.7162793E-001	-1.512841511535988E-003	2.000000000000000E+000	-2.0944957E-004	4.1093000E-007
2	1	0	0	1	6.871619826408278E+001	-2.6812023E-001	-2.6830280E-001	-1.477898835703928E-003	2.000000000000000E+000	-2.0969624E-004	3.9652440E-007
2	1	0	1	1	6.888279825987411E+001	-2.6478818E-001	-2.6498851E-001	-1.443118649198041E-003	2.000000000000000E+000	-2.0993709E-004	3.8240987E-007
2	1	0	0	1	6.904939825566544E+001	-2.6145610E-001	-2.6163515E-001	-1.409392347661239E-003	2.000000000000000E+000	-2.1017225E-004	3.6874658E-007
2	1	0	1	1	6.921599825145677E+001	-2.5812447E-001	-2.5831282E-001	-1.377119009733602E-003	2.000000000000000E+000	-2.1040194E-004	3.5572751E-007
2	1	0	0	1	6.938259824724810E+001	-2.5479242E-001	-2.5498328E-001	-1.345903486645184E-003	2.000000000000000E+000	-2.1062631E-004	3.4318288E-007
2	1	0	1	1	6.954919824303943E+001	-2.5146031E-001	-2.5167888E-001	-1.314743166188159E-003	2.000000000000000E+000	-2.1084551E-004	3.3089310E-007
2	1	0	0	1	6.971579823883076E+001	-2.4812829E-001	-2.4834037E-001	-1.284728081422389E-003	2.000000000000000E+000	-2.1105963E-004	3.1904983E-007
2	1	0	1	1	6.988239823462209E+001	-2.4479625E-001	-2.4499789E-001	-1.255526564754409E-003	2.000000000000000E+000	-2.1126881E-004	3.0760137E-007
2	1	0	0	1	7.004899823041342E+001	-2.4146417E-001	-2.4165285E-001	-1.228028676933691E-003	2.000000000000000E+000	-2.1147328E-004	2.9675664E-007
2	1	0	1	1	7.021559822620475E+001	-2.3813212E-001	-2.3832978E-001	-1.201869760390602E-003	2.000000000000000E+000	-2.1167326E-004	2.8644135E-007
2	1	0	0	1	7.038219822199608E+001	-2.3480050E-001	-2.3500532E-001	-1.176962857230661E-003	2.000000000000000E+000	-2.1186900E-004	2.7659254E-007
2	1	0	1	1	7.054879821778741E+001	-2.3146842E-001	-2.3165904E-001	-1.153149571417756E-003	2.000000000000000E+000	-2.1206071E-004	2.6713752E-007
2	1	0	0	1	7.071539821357874E+001	-2.2813635E-001	-2.2833169E-001	-1.130546810382722E-003	2.000000000000000E+000	-2.1224853E-004	2.5813966E-007
2	1	0	1	1	7.088199820937007E+001	-2.2480430E-001	-2.2500557E-001	-1.108878948748834E-003	2.000000000000000E+000	-2.1243270E-004	2.4950393E-007
2	1	0	0	1	7.104859820516140E+001	-2.2147225E-001	-2.2167508E-001	-1.088636497833397E-003	2.000000000000000E+000	-2.1261336E-004	2.4132359E-007
2	1	0	1	1	7.121519820095273E+001	-2.1814016E-001	-2.1833898E-001	-1.069857122236766E-003	2.000000000000000E+000	-2.1279078E-004	2.3359152E-007
2	1	0	0	1	7.138179819674406E+001	-2.1480855E-001	-2.1499373E-001	-1.051820832696665E-003	2.000000000000000E+000	-2.1296514E-004	2.2613489E-007
2	1	0	1	1	7.154839819253539E+001	-2.1147650E-001	-2.1165442E-001	-1.034878971320801E-003	2.000000000000000E+000	-2.1313658E-004	2.1903671E-007
2	1	0	0	1	7.171499818832672E+001	-2.0814443E-001	-2.0829594E-001	-1.019202599047614E-003	2.000000000000000E+000	-2.1330531E-004	2.1229576E-007
2	1	0	1	1	7.188159818411805E+001	-2.0481235E-001	-2.0498312E-001	-1.004226264624085E-003	2.000000000000000E+000	-2.1347149E-004	2.0584943E-007
2	1	0	0	1	7.204819817990938E+001	-2.0148028E-001	-2.0165184E-001	-9.897887114592718E-004	2.000000000000000E+000	-2.1363520E-004	1.9959272E-007
2	1	0	1	1	7.221479817570071E+001	-1.9814824E-001	-1.9830044E-001	-9.759288959931764E-004	2.000000000000000E+000	-2.1379658E-004	1.9352713E-007
2	1	0	0	1	7.238139817149204E+001	-1.9481617E-001	-1.9496937E-001	-9.635934089698185E-004	2.000000000000000E+000	-2.1395579E-004	1.8787119E-007
2	1	0	0	1	7.254809816728084E+001	-1.9148231E-001	-1.9164309E-001	-9.514812596772802E-004	2.000000000000000E+000	-2.1411305E-004	1.8234481E-007
2	1	0	1	1	7.271469816307217E+001	-1.8815026E-001	-1.8834591E-001	-9.394549576603566E-004	2.000000000000000E+000	-2.1426822E-004	1.7694249E-007
2	1	0	0	1	7.288129815886350E+001	-1.8481819E-001	-1.8500620E-001	-9.282404596736883E-004	2.000000000000000E+000	-2.1442147E-004	1.7173024E-007
2	1	0	1	1	7.304789815465483E+001	-1.8148611E-001	-1.8166912E-001	-9.175123719403905E-004	2.000000000000000E+000	-2.1457291E-004	1.6668366E-007
2	1	0	0	1	7.321449815044616E+001	-1.7815408E-001	-1.7832819E-001	-9.069869065285972E-004	2.000000000000000E+000	-2.1472255E-004	1.6174133E-007
2	1	0	1	1	7.338109814623749E+001	-1.7482200E-001	-1.7500301E-001	-8.970649004674050E-004	2.000000000000000E+000	-2.1487051E-004	1.5698906E-007
2	1	0	0	1	7.354769814202882E+001	-1.7149039E-001	-1.7166924E-001	-8.873518339931538E-004	2.000000000000000E+000	-2.1501683E-004	1.5233103E-007
2	1	0	1	1	7.371429813782015E+001	-1.6815831E-001	-1.6832961E-001	-8.771281849528061E-004	2.000000000000000E+000	-2.1516149E-004	1.4764665E-007
2	1	0	0	1	7.388089813361148E+001	-1.6482627E-001	-1.6500281E-001	-8.683135302451237E-004	2.000000000000000E+000	-2.1530456E-004	1.4327416E-007
2	1	0	1	1	7.404749812940281E+001	-1.6149421E-001	-1.6165665E-001	-8.597311277554753E-004	2.000000000000000E+000	-2.1544618E-004	1.3898125E-007
2	1	0	0	1	7.421409812519414E+001	-1.5816215E-001	-1.5831932E-001	-8.512816462448621E-004	2.000000000000000E+000	-2.1558638E-004	1.3477434E-007
2	1	0	1	1	7.438069812098547E+001	-1.5483007E-001	-1.5498652E-001	-8.426793566989662E-004	2.000000000000000E+000	-2.1572516E-004	1.3060394E-007
2	1	0	0	1	7.454729811677680E+001	-1.5149844E-001	-1.5166391E-001	-8.347449547374771E-004	2.000000000000000E+000	-2.1586259E-004	1.2660068E-007
2	1	0	1	1	7.471389811256813E+001	-1.4816639E-001	-1.4832060E-001	-8.266890498938063E-004	2.000000000000000E+000	-2.1599865E-004	1.2261502E-007
2	1	0	0	1	7.488049810835946E+001	-1.4483432E-001	-1.4499053E-001	-8.188613127982488E-004	2.000000000000000E+000	-2.1613340E-004	1.1872714E-007
2	1	0	1	1	7.504709810415079E+001	-1.4150226E-001	-1.4167584E-001	-8.110596152903489E-004	2.000000000000000E+000	-2.1626684E-004	1.1490756E-007
2	1	0	0	1	7.521369809994212E+001	-1.3817021E-001	-1.3833733E-001	-8.033218949427307E-004	2.000000000000000E+000	-2.1639897E-004	1.1112940E-007
2	1	0	1	1	7.538029809573345E+001	-1.3483815E-001	-1.3499038E-001	-7.955045882348834E-004	2.000000000000000E+000	-2.1652982E-004	1.0738547E-007
2	1	0	0	1	7.554699809152226E+001	-1.3150431E-001	-1.3166898E-001	-7.880120749966663E-004	2.000000000000000E+000	-2.1665949E-004	1.0375675E-007
2	1	0	1	1	7.571359808731359E+001	-1.2817225E-001	-1.2834688E-001	-7.805340196482078E-004	2.000000000000000E+000	-2.1678786E-004	1.0017910E-007
2	1	0	0	1	7.588019808310492E+001	-1.2484018E-001	-1.2497887E-001	-7.733086346977990E-004	2.000000000000000E+000	-2.1691494E-004	9.6647241E-008
2	1	0	1	1	7.604679807889625E+001	-1.2150813E-001	-1.2165586E-001	-7.663003222375953E-004	2.000000000000000E+000	-2.1704086E-004	9.3224926E-008
2	1	0	0	1	7.621339807468758E+001	-1.1817607E-001	-1.1833012E-001	-7.589189129031237E-004	2.000000000000000E+000	-2.1716558E-004	8.9802967E-008
2	1	0	1	1	7.637999807047891E+001	-1.1484399E-001	-1.1496770E-001	-7.519520449230238E-004	2.000000000000000E+000	-2.1728913E-004	8.6450193E-008
2	1	0	0	1	7.654659806627024E+001	-1.1151195E-001	-1.1163812E-001	-7.451122545608507E-004	2.000000000000000E+000	-2.1741152E-004	8.3182933E-008
2	1	0	1	1	7.671319806206157E+001	-1.0818031E-001	-1.0834225E-001	-7.379389026888070E-004	2.000000000000000E+000	-2.1753275E-004	7.9949956E-008
2	1	0	0	1	7.687979805785290E+001	-1.0484826E-001	-1.0500119E-001	-7.315057833365592E-004	2.000000000000000E+000	-2.1765285E-004	7.6808973E-008
2	1	0	1	1	7.704639805364423E+001	-1.0151619E-001	-1.0166419E-001	-7.249990220732326E-004	2.000000000000000E+000	-2.1777190E-004	7.3706438E-008
2	1	0	0	1	7.721299804943556E+001	-9.8184116E-002	-9.8338194E-002	-7.183566407192917E-004	2.000000000000000E+000	-2.1788984E-004	7.0641896E-008
2	1	0	1	1	7.737959804522689E+001	-9.4852068E-002	-9.5010124E-002	-7.118398410587787E-004	2.000000000000000E+000	-2.1800668E-004	6.7631994E-008
2	1	0	0	1	7.754619804101822E+001	-9.1519997E-002	-9.1675453E-002	-7.054832370599323E-004	2.000000000000000E+000	-2.1812246E-004	6.4675497E-008
2	1	0	1	1	7.771279803680955E+001	-8.8188373E-002	-8.8343151E-002	-6.992941096630300E-004	2.000000000000000E+000	-2.1823718E-004	6.1777847E-008
2	1	0	0	1	7.787939803260088E+001	-8.4856316E-002	-8.5038312E-002	-6.930925859998580E-004	2.000000000000000E+000	-2.1835086E-004	5.8939424E-008
2	1	0	1	1	7.804599802839221E+001	-8.1524245E-002	-8.1717439E-002	-6.866277162433324E-004	2.000000000000000E+000	-2.1846349E-004	5.6109460E-008
2	1	0	0	1	7.821259802418354E+001	-7.8192189E-002	-7.8377873E-002	-6.801286153061588E-004	2.000000000000000E+000	-2.1857503E-004	5.3307033E-008
2	1	0	1	1	7.837919801997487E+001	-7.4860126E-002	-7.5046197E-002	-6.739828761039568E-004	2.000000000000000E+000	-2.1868554E-004	5.0579850E-008
2	1	0	0	1	7.854579801576620E+001	-7.1528062E-002	-7.1708113E-002	-6.676117530872629E-004	2.000000000000000E+000	-2.1879497E-004	4.7873179E-008
2	1	0	1	1	7.871239801155753E+001	-6.8196453E-002	-6.8384059E-002	-6.615398557681968E-004	2.000000000000000E+000	-2.1890337E-004	4.5238782E-008
2	1	0	0	1	7.887899800734886E+001	-6.4864382E-002	-6.5052740E-002	-6.550014515606089E-004	2.000000000000000E+000	-2.1901073E-004	4.2609638E-008
2	1	0	1	1	7.904559800314019E+001	-6.1532326E-002	-6.1715957E-002	-6.483494735794919E-004	2.000000000000000E+000	-2.1911704E-004	4.0013507E-008
2	1	0	0	1	7.921219799893152E+001	-5.8200259E-002	-5.8372244E-002	-6.421850275023996E-004	2.000000000000000E+000	-2.1922225E-004	3.7485780E-008
2	1	0	1	1	7.937879799472285E+001	-5.4868199E-002	-5.5054277E-002	-6.367110189190008E-004	2.000000000000000E+000	-2.1932650E-004	3.5053667E-008
2	1	0	0	1	7.954539799051418E+001	-5.1536128E-002	-5.1736154E-002	-6.306839464434322E-004	2.000000000000000E+000	-2.1942978E-004	3.2629160E-008
2	1	0	1	1	7.971199798630551E+001	-4.8204064E-002	-4.8370332E-002	-6.249023305170565E-004	2.000000000000000E+000	-2.1953207E-004	3.0226733E-008
2	1	0	0	1	7.987859798209684E+001	-4.4872452E-002	-4.5079332E-002	-6.188595394742134E-004	2.000000000000000E+000	-2.1963338E-004	2.7897775E-008
2	1	0	1	1	8.004519797788817E+001	-4.1540392E-002	-4.1715425E-002	-6.127342110730585E-004	2.000000000000000E+000	-2.1973367E-004	2.5560468E-008
2	1	0	0	1	8.021179797367950E+001	-3.8208324E-002	-3.8360417E-002	-6.067288699752767E-004	2.000000000000000E+000	-2.1983295E-004	2.3274373E-008
2	1	0	1	1	8.037839796947083E+001	-3.4876261E-002	-3.5027407E-002	-6.010241377348131E-004	2.000000000000000E+000	-2.1993126E-004	2.1052317E-008
2	1	0	0	1	8.054499796526216E+001	-3.1544201E-002	-3.1703118E-002	-5.949179867926913E-004	2.000000000000000E+000	-2.2002858E-004	1.8860755E-008
2	1	0	1	1	8.071159796105349E+001	-2.8212136E-002	-2.8366374E-002	-5.890113472792778E-004	2.000000000000000E+000	-2.2012490E-004	1.6708116E-008
2	1	0	0	1	8.087819795684482E+001	-2.4880517E-002	-2.5049288E-002	-5.833817001227575E-004	2.000000000000000E+000	-2.2022029E-004	1.4613296E-008
2	1	0	1	1	8.104479795263615E+001	-2.1548456E-002	-2.1705275E-002	-5.775770165718196E-004	2.000000000000000E+000	-2.2031470E-004	1.2536468E-008
2	1	0	0	1	8.121139794842748E+001	-1.8216392E-002	-1.8392008E-002	-5.719631891441881E-004	2.000000000000000E+000	-2.2040818E-004	1.0519551E-008
2	1	0	1	1	8.137799794421881E+001	-1.4884330E-002	-1.5049326E-002	-5.662293021030662E-004	2.000000000000000E+000	-2.2050069E-004	8.5213694E-009
2	1	0	0	1	8.154459794001014E+001	-1.1552267E-002	-1.1722300E-002	-5.603413968065084E-004	2.000000000000000E+000	-2.2059224E-004	6.5684902E-009
2	1	0	1	1	8.171119793580147E+001	-8.2202042E-003	-8.3842026E-003	-5.544432670401105E-004	2.000000000000000E+000	-2.2068279E-004	4.6485646E-009
2	1	0	0	1	8.187779793159280E+001	-4.8885844E-003	-5.0696409E-003	-5.490673598331254E-004	2.000000000000000E+000	-2.2077242E-004	2.7835743E-009
2	1	0	1	1	8.204439792738413E+001	-1.5503508E-003	-1.7212548E-003	-5.433323247471811E-004	2.000000000000000E+000	-2.2086113E-004	9.3521335E-010
2	1	0	0	1	8.221099792317546E+001	1.7755405E-003	1.6138837E-003	-5.375729008979401E-004	2.000000000000000E+000	-2.2094887E-004	8.6758012E-010
2	1	0	1	1	8.237759791896679E+001	5.1076021E-003	4.9743429E-003	-5.310817907382779E-004	2.000000000000000E+000	-2.2103560E-004	2.6417830E-009
2	1	0	0	1	8.254419791475812E+001	8.4396629E-003	8.3007962E-003	-5.261340614952578E-004	2.000000000000000E+000	-2.2112142E-004	4.3673314E-009
2	1	0	1	1	8.271079791054945E+001	1.1771725E-002	1.1632292E-002	-5.208580507750525E-004	2.000000000000000E+000	-2.2120636E-004	6.0587726E-009
2	1	0	0	1	8.287739790634078E+001	1.5103786E-002	1.4971383E-002	-5.152641256025697E-004	2.000000000000000E+000	-2.2129038E-004	7.7142168E-009
2	1	0	0	1	8.304409790212958E+001	1.8437624E-002	1.8311620E-002	-5.097325840892892E-004	2.000000000000000E+000	-2.2137354E-004	9.3340295E-009
2	1	0	1	1	8.321069789792091E+001	2.1769686E-002	2.1646954E-002	-5.044793970051828E-004	2.000000000000000E+000	-2.2145576E-004	1.0920442E-008
2	1	0	0	1	8.337729789371224E+001	2.5101746E-002	2.4974270E-002	-4.987608835065535E-004	2.000000000000000E+000	-2.2153706E-004	1.2456189E-008
2	1	0	1	1	8.356889788887202E+001	2.8933169E-002	2.8771602E-002	-4.938790095427798E-004	2.000000000000000E+000	-2.2162976E-004	1.4209690E-008
2	1	0	1	1	8.376039788403432E+001	3.2763712E-002	3.2603905E-002	-4.876796545347332E-004	2.000000000000000E+000	-2.2172149E-004	1.5900261E-008
2	1	0	0	1	8.392699787982565E+001	3.6095772E-002	3.5968453E-002	-4.822356634666077E-004	2.000000000000000E+000	-2.2180006E-004	1.7345270E-008
2	1	0	1	1	8.409359787561698E+001	3.9427835E-002	3.9302059E-002	-4.758313828258365E-004	2.000000000000000E+000	-2.2187765E-004	1.8701153E-008
2	1	0	1	1	8.426029787140578E+001	4.2761669E-002	4.2616278E-002	-4.702933164627710E-004	2.000000000000000E+000	-2.2195431E-004	2.0042151E-008
2	1	0	0	1	8.442689786719711E+001	4.6093732E-002	4.5984853E-002	-4.646029421044445E-004	2.000000000000000E+000	-2.2202995E-004	2.1364698E-008
2	1	0	1	1	8.459349786298844E+001	4.9425796E-002	4.9302336E-002	-4.597261598941306E-004	2.000000000000000E+000	-2.2210476E-004	2.2665574E-008
2	1	0	0	1	8.476009785877977E+001	5.2757852E-002	5.2633610E-002	-4.541447393599327E-004	2.000000000000000E+000	-2.2217870E-004	2.3903278E-008
2	1	0	1	1	8.492669785457110E+001	5.6089912E-002	5.5978049E-002	-4.486324482010605E-004	2.000000000000000E+000	-2.2225169E-004	2.5113568E-008
2	1	0	0	1	8.509329785036243E+001	5.9421968E-002	5.9313368E-002	-4.432574469374543E-004	2.000000000000000E+000	-2.2232377E-004	2.6291092E-008
2	1	0	1	1	8.525989784615376E+001	6.2753588E-002	6.2631667E-002	-4.375599464341885E-004	2.000000000000000E+000	-2.2239494E-004	2.7405109E-008
2	1	0	0	1	8.542649784194509E+001	6.6085652E-002	6.5944739E-002	-4.321868618332274E-004	2.000000000000000E+000	-2.2246518E-004	2.8500450E-008
2	1	0	1	1	8.559309783773642E+001	6.9417708E-002	6.9279820E-002	-4.263360586584958E-004	2.000000000000000E+000	-2.2253452E-004	2.9536485E-008
2	1	0	0	1	8.575969783352775E+001	7.2749779E-002	7.2603658E-002	-4.208144351181549E-004	2.000000000000000E+000	-2.2260289E-004	3.0552666E-008
2	1	0	1	1	8.592629782931908E+001	7.6081842E-002	7.5933263E-002	-4.150112973202932E-004	2.000000000000000E+000	-2.2267029E-004	3.1513164E-008
2	1	0	0	1	8.609289782511041E+001	7.9413898E-002	7.9278700E-002	-4.092006336913982E-004	2.000000000000000E+000	-2.2273674E-004	3.2440894E-008
2	1	0	1	1	8.625949782090174E+001	8.2745507E-002	8.2589224E-002	-4.033741964175634E-004	2.000000000000000E+000	-2.2280223E-004	3.3314361E-008
2	1	0	0	1	8.642609781669307E+001	8.6077578E-002	8.5910328E-002	-3.978181726950192E-004	2.000000000000000E+000	-2.2286679E-004	3.4176690E-008
2	1	0	1	1	8.659269781248440E+001	8.9409642E-002	8.9250527E-002	-3.917577864940915E-004	2.000000000000000E+000	-2.2293038E-004	3.4964589E-008
2	1	0	0	1	8.675929780827573E+001	9.2741705E-002	9.2588328E-002	-3.861024742430056E-004	2.000000000000000E+000	-2.2299298E-004	3.5748581E-008
2	1	0	1	1	8.692589780406706E+001	9.6073754E-002	9.5918596E-002	-3.803124428624363E-004	2.000000000000000E+000	-2.2305462E-004	3.6479037E-008
2	1	0	0	1	8.705919780069962E+001	9.8739870E-002	9.8595560E-002	-3.751410906401732E-004	2.000000000000000E+000	-2.2310328E-004	3.6987245E-008
2	0	0	0	1	8.711799779921421E+001	9.9906117E-002	9.9791698E-002	-3.736081307579298E-004	2.000000000000000E+000	-2.2312455E-004	3.7282991E-008
2	0	0	1	1	8.720959779690020E+001	9.8073006E-002	9.7933330E-002	-4.304130754923981E-004	2.000000000000000E+000	-2.2316477E-004	4.2151786E-008
2	0	0	0	1	8.737619779269153E+001	9.4740942E-002	9.4589524E-002	-4.667898603372325E-004	2.000000000000000E+000	-2.2324189E-004	4.4153431E-008
2	0	0	1	1	8.754279778848286E+001	9.1408886E-002	9.1268890E-002	-4.960175886274103E-004	2.000000000000000E+000	-2.2332440E-004	4.5270976E-008
2	0	0	0	1	8.770939778427419E+001	8.8076822E-002	8.7931432E-002	-5.218011958891648E-004	2.000000000000000E+000	-2.2341148E-004	4.5882725E-008
2	0	0	1	1	8.787599778006552E+001	8.4744759E-002	8.4588729E-002	-5.451431425958692E-004	2.000000000000000E+000	-2.2350260E-004	4.6112966E-008
2	0	0	0	1	8.804259777585685E+001	8.1413142E-002	8.1255533E-002	-5.677463401383524E-004	2.000000000000000E+000	-2.2359757E-004	4.6132531E-008
2	0	0	1	1	8.820919777164818E+001	7.8081079E-002	7.7933379E-002	-5.885504660576397E-004	2.000000000000000E+000	-2.2369613E-004	4.5867726E-008
2	0	0	0	1	8.837579776743951E+001	7.4749015E-002	7.4598901E-002	-6.078734800354993E-004	2.000000000000000E+000	-2.2379807E-004	4.5346695E-008
2	0	0	1	1	8.854239776323084E+001	7.1416959E-002	7.1253449E-002	-6.259743875292817E-004	2.000000000000000E+000	-2.2390313E-004	4.4602835E-008
2	0	0	0	1	8.870899775902217E+001	6.8084896E-002	6.7946814E-002	-6.436715928605377E-004	2.000000000000000E+000	-2.2401114E-004	4.3735433E-008
2	0	0	1	1	8.887559775481350E+001	6.4752832E-002	6.4606987E-002	-6.600075963902486E-004	2.000000000000000E+000	-2.2412196E-004	4.2641101E-008
2	0	0	0	1	8.904219775060483E+001	6.1420768E-002	6.1301347E-002	-6.757181941136146E-004	2.000000000000000E+000	-2.2423547E-004	4.1422435E-008
2	0	0	1	1	8.920879774639616E+001	5.8089156E-002	5.7972677E-002	-6.908183637941430E-004	2.000000000000000E+000	-2.2435152E-004	4.0048590E-008
2	0	0	0	1	8.937539774218749E+001	5.4757092E-002	5.4620177E-002	-7.055890798026388E-004	2.000000000000000E+000	-2.2447009E-004	3.8539401E-008
2	0	0	1	1	8.954199773797882E+001	5.1425032E-002	5.1288098E-002	-7.192815334849667E-004	2.000000000000000E+000	-2.2459103E-004	3.6890583E-008
2	0	0	0	1	8.970859773377015E+001	4.8092969E-002	4.7971208E-002	-7.327240878167709E-004	2.000000000000000E+000	-2.2471421E-004	3.5149661E-008
2	0	0	1	1	8.987519772956148E+001	4.4760909E-002	4.4613410E-002	-7.461379152775621E-004	2.000000000000000E+000	-2.2483963E-004	3.3287758E-008
2	0	0	0	1	9.004179772535281E+001	4.1428849E-002	4.1244172E-002	-7.584109031536787E-004	2.000000000000000E+000	-2.2496720E-004	3.1280031E-008
2	0	0	1	1	9.020839772114414E+001	3.8097229E-002	3.7933275E-002	-7.701934569389595E-004	2.000000000000000E+000	-2.2509678E-004	2.9215959E-008
2	0	0	0	1	9.037499771693547E+001	3.4765169E-002	3.4596257E-002	-7.821780314530413E-004	2.000000000000000E+000	-2.2522834E-004	2.7060432E-008
2	0	0	1	1	9.054159771272680E+001	3.1433109E-002	3.1275824E-002	-7.933325029973338E-004	2.000000000000000E+000	-2.2536183E-004	2.4812127E-008
2	0	0	0	1	9.070819770851813E+001	2.8101048E-002	2.7929498E-002	-8.039344774892357E-004	2.000000000000000E+000	-2.2549710E-004	2.2453486E-008
2	0	0	1	1	9.087479770430946E+001	2.4768986E-002	2.4590386E-002	-8.141877637514970E-004	2.000000000000000E+000	-2.2563412E-004	2.0021192E-008
2	0	0	0	1	9.104139770010079E+001	2.1436924E-002	2.1277940E-002	-8.250767345913748E-004	2.000000000000000E+000	-2.2577292E-004	1.7555934E-008
2	0	0	1	1	9.120799769589212E+001	1.8104861E-002	1.7942883E-002	-8.355806513537806E-004	2.000000000000000E+000	-2.2591346E-004	1.4992725E-008
2	0	0	0	1	9.137459769168345E+001	1.4773244E-002	1.4627101E-002	-8.456084031151744E-004	2.000000000000000E+000	-2.2605572E-004	1.2368799E-008
2	0	0	1	1	9.154119768747478E+001	1.1441184E-002	1.1269523E-002	-8.553972326962624E-004	2.000000000000000E+000	-2.2619966E-004	9.6399191E-009
2	0	0	0	1	9.170779768326611E+001	8.1091234E-003	7.9274280E-003	-8.648397207612971E-004	2.000000000000000E+000	-2.2634518E-004	6.8559545E-009
2	0	0	1	1	9.187439767905744E+001	4.7770613E-003	4.6046241E-003	-8.738682507056922E-004	2.000000000000000E+000	-2.2649222E-004	4.0238350E-009
2	0	0	0	1	9.204099767484877E+001	1.4449999E-003	1.2449408E-003	-8.832107046051300E-004	2.000000000000000E+000	-2.2664081E-004	1.0995450E-009
2	0	0	1	1	9.220759767064010E+001	-1.8870622E-003	-2.0867458E-003	-8.917434608543450E-004	2.000000000000000E+000	-2.2679090E-004	1.8608419E-009
2	0	0	0	1	9.237419766643143E+001	-5.2191252E-003	-5.4006665E-003	-9.001348328579982E-004	2.000000000000000E+000	-2.2694237E-004	4.8613282E-009
2	0	0	0	1	9.254089766222023E+001	-8.5529657E-003	-8.7434808E-003	-9.085870222550266E-004	2.000000000000000E+000	-2.2709536E-004	7.9442133E-009
2	0	0	1	1	9.270749765801156E+001	-1.1885027E-002	-1.2084116E-002	-9.169597630723563E-004	2.000000000000000E+000	-2.2724963E-004	1.1080648E-008
2	0	0	0	1	9.287409765380289E+001	-1.5217091E-002	-1.5407884E-002	-9.247376769025897E-004	2.000000000000000E+000	-2.2740527E-004	1.4248251E-008
2	0	0	1	1	9.304069764959422E+001	-1.8549154E-002	-1.8745586E-002	-9.327459841952033E-004	2.000000000000000E+000	-2.2756221E-004	1.7484870E-008
2	0	0	0	1	9.320729764538555E+001	-2.1881215E-002	-2.2066256E-002	-9.402630272417828E-004	2.000000000000000E+000	-2.2772045E-004	2.0748084E-008
2	0	0	1	1	9.337389764117688E+001	-2.5213277E-002	-2.5403038E-002	-9.477932962531676E-004	2.000000000000000E+000	-2.2787995E-004	2.4076829E-008
2	0	0	0	1	9.354049763696821E+001	-2.8544893E-002	-2.8733272E-002	-9.555309948435058E-004	2.000000000000000E+000	-2.2804072E-004	2.7455533E-008
2	0	0	1	1	9.370709763275954E+001	-3.1876959E-002	-3.2069575E-002	-9.630184135324509E-004	2.000000000000000E+000	-2.2820274E-004	3.0883591E-008
2	0	0	0	1	9.387369762855087E+001	-3.5209019E-002	-3.5390723E-002	-9.700487373894718E-004	2.000000000000000E+000	-2.2836600E-004	3.4330725E-008
2	0	0	1	1	9.404029762434220E+001	-3.8541082E-002	-3.8716875E-002	-9.774508590875927E-004	2.000000000000000E+000	-2.2853044E-004	3.7843844E-008
2	0	0	0	1	9.422359761971165E+001	-4.2207446E-002	-4.2374257E-002	-9.834353937562546E-004	2.000000000000000E+000	-2.2871324E-004	4.1672344E-008
2	0	0	1	1	9.440679761508363E+001	-4.5871180E-002	-4.6048418E-002	-9.901813107378275E-004	2.000000000000000E+000	-2.2889703E-004	4.5596284E-008
2	0	0	0	1	9.457339761087496E+001	-4.9202796E-002	-4.9390279E-002	-9.973676224829670E-004	2.000000000000000E+000	-2.2906490E-004	4.9260265E-008
2	0	0	1	1	9.473999760666629E+001	-5.2534863E-002	-5.2707318E-002	-1.004335267833532E-003	2.000000000000000E+000	-2.2923395E-004	5.2935818E-008
2	0	0	0	1	9.490659760245762E+001	-5.5866931E-002	-5.6064885E-002	-1.011098886200764E-003	2.000000000000000E+000	-2.2940412E-004	5.6687142E-008
2	0	0	1	1	9.507319759824895E+001	-5.9198990E-002	-5.9368428E-002	-1.017853895652100E-003	2.000000000000000E+000	-2.2957542E-004	6.0428384E-008
2	0	0	0	1	9.523979759404028E+001	-6.2531054E-002	-6.2692277E-002	-1.024374575779554E-003	2.000000000000000E+000	-2.2974783E-004	6.4220373E-008
2	0	0	1	1	9.540639758983161E+001	-6.5863118E-002	-6.6020176E-002	-1.030894532778538E-003	2.000000000000000E+000	-2.2992134E-004	6.8059840E-008
2	0	0	0	1	9.557299758562294E+001	-6.9194734E-002	-6.9356345E-002	-1.037346042798783E-003	2.000000000000000E+000	-2.3009592E-004	7.1946531E-008
2	0	0	1	1	9.573959758141427E+001	-7.2526798E-002	-7.2685272E-002	-1.044264887446957E-003	2.000000000000000E+000	-2.3027162E-004	7.5902676E-008
2	0	0	0	1	9.590619757720560E+001	-7.5858854E-002	-7.6038145E-002	-1.050523339377774E-003	2.000000000000000E+000	-2.3044841E-004	7.9879847E-008
2	0	0	1	1	9.607279757299693E+001	-7.9190925E-002	-7.9364978E-002	-1.057103379897005E-003	2.000000000000000E+000	-2.3062629E-004	8.3896985E-008
2	0	0	0	1	9.623939756878826E+001	-8.2522981E-002	-8.2688883E-002	-1.063384279696888E-003	2.000000000000000E+000	-2.3080524E-004	8.7930061E-008
2	0	0	1	1	9.640599756457959E+001	-8.5855044E-002	-8.6025029E-002	-1.069892400052796E-003	2.000000000000000E+000	-2.3098524E-004	9.2037524E-008
2	0	0	0	1	9.657259756037092E+001	-8.9187108E-002	-8.9333355E-002	-1.076294677668352E-003	2.000000000000000E+000	-2.3116633E-004	9.6149016E-008
2	0	0	0	1	9.673929755615973E+001	-9.2520937E-002	-9.2657715E-002	-1.082743874110435E-003	2.000000000000000E+000	-2.3134859E-004	1.0032457E-007
2	0	0	1	1	9.690589755195106E+001	-9.5853001E-002	-9.6006170E-002	-1.089145535151061E-003	2.000000000000000E+000	-2.3153184E-004	1.0456469E-007
2	0	0	0	1	9.707249754774239E+001	-9.9185064E-002	-9.9339433E-002	-1.095725613103539E-003	2.000000000000000E+000	-2.3171617E-004	1.0884876E-007
2	0	0	1	1	9.723909754353372E+001	-1.0251713E-001	-1.0266617E-001	-1.102217013594154E-003	2.000000000000000E+000	-2.3190156E-004	1.1316040E-007
2	0	0	0	1	9.740569753932505E+001	-1.0584918E-001	-1.0599899E-001	-1.107653456158469E-003	2.000000000000000E+000	-2.3208794E-004	1.1741015E-007
2	0	0	1	1	9.757229753511638E+001	-1.0918126E-001	-1.0932580E-001	-1.114998727524708E-003	2.000000000000000E+000	-2.3227540E-004	1.2189813E-007
2	0	0	0	1	9.773889753090771E+001	-1.1251287E-001	-1.1266066E-001	-1.121445477743215E-003	2.000000000000000E+000	-2.3246401E-004	1.2634278E-007
2	0	0	1	1	9.790549752669904E+001	-1.1584494E-001	-1.1599707E-001	-1.128483188783388E-003	2.000000000000000E+000	-2.3265375E-004	1.3090074E-007
2	0	0	0	1	9.807209752249037E+001	-1.1917700E-001	-1.1933022E-001	-1.135142604012977E-003	2.000000000000000E+000	-2.3284463E-004	1.3545682E-007
2	0	0	1	1	9.823869751828170E+001	-1.2250907E-001	-1.2264788E-001	-1.141643106733880E-003	2.000000000000000E+000	-2.3303661E-004	1.4002011E-007
2	0	0	0	1	9.840529751407303E+001	-1.2584113E-001	-1.2598832E-001	-1.148956148299971E-003	2.000000000000000E+000	-2.3322973E-004	1.4475505E-007
2	0	0	1	1	9.857189750986436E+001	-1.2917320E-001	-1.2935288E-001	-1.155747229992454E-003	2.000000000000000E+000	-2.3342403E-004	1.4949923E-007
2	0	0	0	1	9.873849750565569E+001	-1.3250481E-001	-1.3267252E-001	-1.162403236135130E-003	2.000000000000000E+000	-2.3361943E-004	1.5421897E-007
2	0	0	1	1	9.890509750144702E+001	-1.3583688E-001	-1.3599740E-001	-1.169369880049217E-003	2.000000000000000E+000	-2.3381598E-004	1.5903126E-007
2	0	0	0	1	9.907169749723835E+001	-1.3916893E-001	-1.3934800E-001	-1.176615699213105E-003	2.000000000000000E+000	-2.3401373E-004	1.6395904E-007
2	0	0	1	1	9.923829749302968E+001	-1.4250100E-001	-1.4269581E-001	-1.183754018518484E-003	2.000000000000000E+000	-2.3421268E-004	1.6891674E-007
2	0	0	0	1	9.940489748882101E+001	-1.4583306E-001	-1.4600816E-001	-1.190997656131766E-003	2.000000000000000E+000	-2.3441283E-004	1.7389539E-007
2	0	0	1	1	9.957149748461234E+001	-1.4916511E-001	-1.4933905E-001	-1.198347701655524E-003	2.000000000000000E+000	-2.3461423E-004	1.7896011E-007
2	0	0	0	1	9.973819748040114E+001	-1.5249898E-001	-1.5266809E-001	-1.206038072848661E-003	2.000000000000000E+000	-2.3481695E-004	1.8412352E-007
2	0	0	1	1	9.990479747619247E+001	-1.5583102E-001	-1.5600428E-001	-1.214035060574464E-003	2.000000000000000E+000	-2.3502087E-004	1.8939467E-007
2	0	0	0	1	1.000713974719838E+002	-1.5916312E-001	-1.5933339E-001	-1.222197272375339E-003	2.000000000000000E+000	-2.3522614E-004	1.9473684E-007
2	0	0	1	1	1.002379974677751E+002	-1.6249515E-001	-1.6267487E-001	-1.230613083615183E-003	2.000000000000000E+000	-2.3543280E-004	2.0018983E-007
2	0	0	0	1	1.004045974635665E+002	-1.6582723E-001	-1.6601846E-001	-1.238891702182568E-003	2.000000000000000E+000	-2.3564082E-004	2.0567889E-007
2	0	0	1	1	1.005711974593578E+002	-1.6915929E-001	-1.6935818E-001	-1.248045247929974E-003	2.000000000000000E+000	-2.3585034E-004	2.1136667E-007
2	0	0	0	1	1.007377974551491E+002	-1.7249136E-001	-1.7266682E-001	-1.257432745431732E-003	2.000000000000000E+000	-2.3606137E-004	2.1711691E-007
2	0	0	1	1	1.009043974509405E+002	-1.7582297E-001	-1.7601775E-001	-1.266830291122841E-003	2.000000000000000E+000	-2.3627399E-004	2.2298461E-007
2	0	0	0	1	1.010709974467318E+002	-1.7915502E-001	-1.7933378E-001	-1.277594944167975E-003	2.000000000000000E+000	-2.3648827E-004	2.2911593E-007
2	0	0	1	1	1.012375974425231E+002	-1.8248710E-001	-1.8268499E-001	-1.288921205155913E-003	2.000000000000000E+000	-2.3670441E-004	2.3546656E-007
2	0	0	0	1	1.014041974383144E+002	-1.8581918E-001	-1.8599992E-001	-1.300508811174710E-003	2.000000000000000E+000	-2.3692244E-004	2.4189453E-007
2	0	0	1	1	1.015707974341058E+002	-1.8915123E-001	-1.8935286E-001	-1.313258171369559E-003	2.000000000000000E+000	-2.3714249E-004	2.4866918E-007
2	0	0	0	1	1.017373974298971E+002	-1.9248328E-001	-1.9264193E-001	-1.326242959675518E-003	2.000000000000000E+000	-2.3736471E-004	2.5548999E-007
2	0	0	1	1	1.019039974256884E+002	-1.9581491E-001	-1.9598418E-001	-1.340748848042422E-003	2.000000000000000E+000	-2.3758927E-004	2.6276558E-007
2	0	0	0	1	1.020705974214798E+002	-1.9914697E-001	-1.9931355E-001	-1.356512459472971E-003	2.000000000000000E+000	-2.3781632E-004	2.7037132E-007
2	0	0	1	1	1.022371974172711E+002	-2.0247903E-001	-2.0266116E-001	-1.372714751064878E-003	2.000000000000000E+000	-2.3804605E-004	2.7819596E-007
2	0	0	0	1	1.024037974130624E+002	-2.0581110E-001	-2.0599689E-001	-1.390722838680794E-003	2.000000000000000E+000	-2.3827860E-004	2.8648458E-007
2	0	0	1	1	1.025703974088538E+002	-2.0914316E-001	-2.0930873E-001	-1.410884065317938E-003	2.000000000000000E+000	-2.3851437E-004	2.9531034E-007
2	0	0	0	1	1.027369974046451E+002	-2.1247523E-001	-2.1265884E-001	-1.432602896755012E-003	2.000000000000000E+000	-2.3875365E-004	3.0465566E-007
2	0	0	1	1	1.029035974004364E+002	-2.1580683E-001	-2.1598969E-001	-1.455418867345914E-003	2.000000000000000E+000	-2.3899667E-004	3.1435547E-007
2	0	0	0	1	1.030701973962277E+002	-2.1913888E-001	-2.1931529E-001	-1.480043150180351E-003	2.000000000000000E+000	-2.3924360E-004	3.2459610E-007
2	0	0	1	1	1.032367973920191E+002	-2.2247098E-001	-2.2266813E-001	-1.507005998759783E-003	2.000000000000000E+000	-2.3949484E-004	3.3556219E-007
2	0	0	0	1	1.034033973878104E+002	-2.2580303E-001	-2.2600301E-001	-1.535599094673552E-003	2.000000000000000E+000	-2.3975072E-004	3.4705002E-007
2	0	0	1	1	1.035699973836017E+002	-2.2913508E-001	-2.2930758E-001	-1.566295094476290E-003	2.000000000000000E+000	-2.4001155E-004	3.5916332E-007
2	0	0	0	1	1.037365973793931E+002	-2.3246717E-001	-2.3266797E-001	-1.599195281693543E-003	2.000000000000000E+000	-2.4027770E-004	3.7208153E-007
2	0	0	1	1	1.039031973751844E+002	-2.3579922E-001	-2.3597822E-001	-1.634294228418879E-003	2.000000000000000E+000	-2.4054950E-004	3.8565784E-007
2	0	0	0	1	1.040697973709757E+002	-2.3913085E-001	-2.3929191E-001	-1.671164217711813E-003	2.000000000000000E+000	-2.4082731E-004	3.9989607E-007
2	0	0	1	1	1.042363973667671E+002	-2.4246290E-001	-2.4264053E-001	-1.711202589376907E-003	2.000000000000000E+000	-2.4111157E-004	4.1520710E-007
2	0	0	0	1	1.044029973625584E+002	-2.4579497E-001	-2.4597928E-001	-1.753136336039445E-003	2.000000000000000E+000	-2.4140265E-004	4.3123521E-007
2	0	0	1	1	1.045695973583497E+002	-2.4912702E-001	-2.4932031E-001	-1.796998344575987E-003	2.000000000000000E+000	-2.4170089E-004	4.4802820E-007
2	0	0	0	1	1.047361973541410E+002	-2.5245908E-001	-2.5265071E-001	-1.842721062022091E-003	2.000000000000000E+000	-2.4200660E-004	4.6556477E-007
2	0	0	1	1	1.049027973499324E+002	-2.5579116E-001	-2.5596821E-001	-1.890151271264739E-003	2.000000000000000E+000	-2.4232011E-004	4.8381867E-007
2	0	0	0	1	1.050693973457237E+002	-2.5912324E-001	-2.5929523E-001	-1.939637934144665E-003	2.000000000000000E+000	-2.4264165E-004	5.0293886E-007
2	0	0	1	1	1.052359973415150E+002	-2.6245484E-001	-2.6262060E-001	-1.990725584862296E-003	2.000000000000000E+000	-2.4297160E-004	5.2280552E-007
2	0	0	0	1	1.054025973373064E+002	-2.6578689E-001	-2.6596838E-001	-2.044111813154517E-003	2.000000000000000E+000	-2.4331026E-004	5.4366910E-007
2	0	0	1	1	1.055691973330977E+002	-2.6911896E-001	-2.6930222E-001	-2.098798218056079E-003	2.000000000000000E+000	-2.4365795E-004	5.6521100E-007
2	0	0	0	1	1.057357973288890E+002	-2.7245104E-001	-2.7262691E-001	-2.154561647374237E-003	2.000000000000000E+000	-2.4401482E-004	5.8739147E-007
2	0	0	1	1	1.059023973246804E+002	-2.7578306E-001	-2.7595356E-001	-2.211895350499520E-003	2.000000000000000E+000	-2.4438114E-004	6.1038043E-007
2	0	0	0	1	1.060689973204717E+002	-2.7911514E-001	-2.7928504E-001	-2.270584019822500E-003	2.000000000000000E+000	-2.4475710E-004	6.3414018E-007
2	0	0	1	1	1.062355973162630E+002	-2.8244677E-001	-2.8260124E-001	-2.329988017974766E-003	2.000000000000000E+000	-2.4514290E-004	6.5845751E-007
2	0	0	0	1	1.064021973120543E+002	-2.8577885E-001	-2.8593442E-001	-2.391713187335689E-003	2.000000000000000E+000	-2.4553883E-004	6.8387311E-007
2	0	0	1	1	1.065687973078457E+002	-2.8911093E-001	-2.8928307E-001	-2.453321964945382E-003	2.000000000000000E+000	-2.4594500E-004	7.0970452E-007
2	0	0	0	1	1.067353973036370E+002	-2.9244295E-001	-2.9260987E-001	-2.515731645765230E-003	2.000000000000000E+000	-2.4636151E-004	7.3612790E-007
2	0	0	1	1	1.069019972994283E+002	-2.9577503E-001	-2.9597232E-001	-2.579328052494334E-003	2.000000000000000E+000	-2.4678858E-004	7.6340967E-007
2	0	0	0	1	1.070685972952197E+002	-2.9910707E-001	-2.9930449E-001	-2.643376033310815E-003	2.000000000000000E+000	-2.4722630E-004	7.9117433E-007
2	0	0	1	1	1.072351972910110E+002	-3.0243912E-001	-3.0262667E-001	-2.707603701693796E-003	2.000000000000000E+000	-2.4767464E-004	8.1939311E-007
2	0	0	1	1	1.074018972867998E+002	-3.0577293E-001	-3.0594692E-001	-2.772120460257044E-003	2.000000000000000E+000	-2.4813396E-004	8.4812172E-007
2	0	0	0	1	1.075684972825911E+002	-3.0910501E-001	-3.0930096E-001	-2.837832326221371E-003	2.000000000000000E+000	-2.4860390E-004	8.7774424E-007
2	0	0	1	1	1.077350972783825E+002	-3.1243706E-001	-3.1264517E-001	-2.902397809304562E-003	2.000000000000000E+000	-2.4908470E-004	9.0742066E-007
2	0	0	0	1	1.079016972741738E+002	-3.1576917E-001	-3.1596538E-001	-2.967628404430046E-003	2.000000000000000E+000	-2.4957626E-004	9.3766783E-007
2	0	0	1	1	1.080682972699651E+002	-3.1910121E-001	-3.1928626E-001	-3.032042184978480E-003	2.000000000000000E+000	-2.5007868E-004	9.6808935E-007
2	0	0	0	1	1.082348972657564E+002	-3.2243326E-001	-3.2261837E-001	-3.097222018442133E-003	2.000000000000000E+000	-2.5059187E-004	9.9922067E-007
2	0	0	1	1	1.084014972615478E+002	-3.2576489E-001	-3.2594353E-001	-3.161567666377520E-003	2.000000000000000E+000	-2.5111585E-004	1.0304925E-006
2	0	0	0	1	1.085680972573391E+002	-3.2909694E-001	-3.2929537E-001	-3.226331214455286E-003	2.000000000000000E+000	-2.5165058E-004	1.0624159E-006
2	0	0	1	1	1.087346972531304E+002	-3.3242902E-001	-3.3260858E-001	-3.290340874936182E-003	2.000000000000000E+000	-2.5219604E-004	1.0943957E-006
2	0	0	0	1	1.089012972489218E+002	-3.3576107E-001	-3.3594117E-001	-3.353077313929191E-003	2.000000000000000E+000	-2.5275210E-004	1.1264367E-006
2	0	0	1	1	1.090678972447131E+002	-3.3909312E-001	-3.3929259E-001	-3.417741170883448E-003	2.000000000000000E+000	-2.5331875E-004	1.1596143E-006
2	0	0	0	1	1.092344972405044E+002	-3.4242520E-001	-3.4265032E-001	-3.481293751546870E-003	2.000000000000000E+000	-2.5389605E-004	1.1928664E-006
2	0	0	1	1	1.094010972362958E+002	-3.4575680E-001	-3.4597951E-001	-3.543836526332861E-003	2.000000000000000E+000	-2.5448386E-004	1.2260948E-006
2	0	0	0	1	1.095676972320871E+002	-3.4908888E-001	-3.4930885E-001	-3.606061228117178E-003	2.000000000000000E+000	-2.5508209E-004	1.2596291E-006
2	0	0	1	1	1.097342972278784E+002	-3.5242093E-001	-3.5264945E-001	-3.668458370848997E-003	2.000000000000000E+000	-2.5569068E-004	1.2936798E-006
2	0	0	0	1	1.099008972236697E+002	-3.5575297E-001	-3.5597971E-001	-3.729714520477824E-003	2.000000000000000E+000	-2.5630955E-004	1.3277026E-006
2	0	0	1	1	1.100674972194611E+002	-3.5908505E-001	-3.5930523E-001	-3.790642740966986E-003	2.000000000000000E+000	-2.5693857E-004	1.3619978E-006
2	0	0	0	1	1.102340972152524E+002	-3.6241710E-001	-3.6262780E-001	-3.850764495633215E-003	2.000000000000000E+000	-2.5757772E-004	1.3963943E-006
2	0	0	1	1	1.104007972110412E+002	-3.6575097E-001	-3.6594775E-001	-3.910736821700900E-003	2.000000000000000E+000	-2.5822723E-004	1.4311254E-006
2	0	0	0	1	1.105673972068325E+002	-3.6908305E-001	-3.6927676E-001	-3.970931633675595E-003	2.000000000000000E+000	-2.5888637E-004	1.4663727E-006
2	0	0	1	1	1.107339972026239E+002	-3.7241513E-001	-3.7260973E-001	-4.030445976692110E-003	2.000000000000000E+000	-2.5955553E-004	1.5017835E-006
2	0	0	0	1	1.109005971984152E+002	-3.7574720E-001	-3.7596279E-001	-4.089960187484129E-003	2.000000000000000E+000	-2.6023461E-004	1.5376729E-006
2	0	0	1	1	1.110671971942065E+002	-3.7907925E-001	-3.7928504E-001	-4.148870554297482E-003	2.000000000000000E+000	-2.6092352E-004	1.5736045E-006
2	0	0	0	1	1.112337971899979E+002	-3.8241130E-001	-3.8263217E-001	-4.207989083176877E-003	2.000000000000000E+000	-2.6162228E-004	1.6101120E-006
2	0	0	1	1	1.114003971857892E+002	-3.8574341E-001	-3.8596869E-001	-4.266646307500635E-003	2.000000000000000E+000	-2.6233084E-004	1.6467918E-006
2	0	0	0	1	1.115669971815805E+002	-3.8907498E-001	-3.8929304E-001	-4.325404851989824E-003	2.000000000000000E+000	-2.6304918E-004	1.6838500E-006
2	0	0	1	1	1.117335971773718E+002	-3.9240706E-001	-3.9263931E-001	-4.384118632388707E-003	2.000000000000000E+000	-2.6377727E-004	1.7213773E-006
2	0	0	0	1	1.119001971731632E+002	-3.9573911E-001	-3.9595920E-001	-4.442544117075231E-003	2.000000000000000E+000	-2.6451514E-004	1.7590662E-006
2	0	0	1	1	1.120667971689545E+002	-3.9907116E-001	-3.9930215E-001	-4.500782255642793E-003	2.000000000000000E+000	-2.6526273E-004	1.7971721E-006
2	0	0	0	1	1.122333971647458E+002	-4.0240327E-001	-4.0264013E-001	-4.559974632869767E-003	2.000000000000000E+000	-2.6602007E-004	1.8360288E-006
2	0	0	1	1	1.123999971605372E+002	-4.0573531E-001	-4.0595168E-001	-4.617677380801016E-003	2.000000000000000E+000	-2.6678713E-004	1.8745538E-006
2	0	0	0	1	1.125665971563285E+002	-4.0906692E-001	-4.0927318E-001	-4.676334188150805E-003	2.000000000000000E+000	-2.6756394E-004	1.9138981E-006
2	0	0	1	1	1.127331971521198E+002	-4.1239899E-001	-4.1262189E-001	-4.734790835989225E-003	2.000000000000000E+000	-2.6835053E-004	1.9536783E-006
2	0	0	0	1	1.128997971479112E+002	-4.1573104E-001	-4.1596571E-001	-4.793886226224231E-003	2.000000000000000E+000	-2.6914687E-004	1.9940924E-006
2	0	0	1	1	1.130663971437025E+002	-4.1906312E-001	-4.1928443E-001	-4.855100450538018E-003	2.000000000000000E+000	-2.6995322E-004	2.0356681E-006
2	0	0	0	1	1.132329971394938E+002	-4.2239520E-001	-4.2262697E-001	-4.914650783304969E-003	2.000000000000000E+000	-2.7076967E-004	2.0770640E-006
2	0	0	1	1	1.133995971352851E+002	-4.2572722E-001	-4.2594984E-001	-4.973422669853664E-003	2.000000000000000E+000	-2.7159593E-004	2.1184287E-006
2	0	0	0	1	1.135661971310765E+002	-4.2905930E-001	-4.2925838E-001	-5.033330121534986E-003	2.000000000000000E+000	-2.7243205E-004	2.1605990E-006
2	0	0	1	1	1.137327971268678E+002	-4.3239090E-001	-4.3258840E-001	-5.092151882877691E-003	2.000000000000000E+000	-2.7327804E-004	2.2028057E-006
2	0	0	0	1	1.138993971226591E+002	-4.3572301E-001	-4.3593112E-001	-5.152765334928616E-003	2.000000000000000E+000	-2.7413404E-004	2.2462507E-006
2	0	0	1	1	1.140659971184505E+002	-4.3905506E-001	-4.3928185E-001	-5.213960448851807E-003	2.000000000000000E+000	-2.7500017E-004	2.2903982E-006
2	0	0	0	1	1.142325971142418E+002	-4.4238710E-001	-4.4259909E-001	-5.274645700902081E-003	2.000000000000000E+000	-2.7587646E-004	2.3345533E-006
2	0	0	1	1	1.143991971100331E+002	-4.4571915E-001	-4.4594228E-001	-5.335902191184086E-003	2.000000000000000E+000	-2.7676293E-004	2.3795044E-006
2	0	0	0	1	1.145657971058245E+002	-4.4905126E-001	-4.4925007E-001	-5.397665866523974E-003	2.000000000000000E+000	-2.7765962E-004	2.4249018E-006
2	0	0	1	1	1.147323971016158E+002	-4.5238286E-001	-4.5258167E-001	-5.459072527084318E-003	2.000000000000000E+000	-2.7856661E-004	2.4706762E-006
2	0	0	0	1	1.148989970974071E+002	-4.5571491E-001	-4.5592427E-001	-5.521751006982763E-003	2.000000000000000E+000	-2.7948400E-004	2.5175002E-006
2	0	0	1	1	1.150655970931984E+002	-4.5904696E-001	-4.5925769E-001	-5.584812702838676E-003	2.000000000000000E+000	-2.8041180E-004	2.5648683E-006
2	0	0	0	1	1.152321970889898E+002	-4.6237904E-001	-4.6259955E-001	-5.647739257870307E-003	2.000000000000000E+000	-2.8135011E-004	2.6126415E-006
2	0	0	1	1	1.153987970847811E+002	-4.6571109E-001	-4.6591640E-001	-5.711216659424631E-003	2.000000000000000E+000	-2.8229895E-004	2.6609496E-006
2	0	0	0	1	1.155653970805724E+002	-4.6904320E-001	-4.6926269E-001	-5.775496181384870E-003	2.000000000000000E+000	-2.8325841E-004	2.7102249E-006
2	0	0	1	1	1.157319970763638E+002	-4.7237524E-001	-4.7260264E-001	-5.837709010768702E-003	2.000000000000000E+000	-2.8422842E-004	2.7589167E-006
2	0	0	0	1	1.158985970721551E+002	-4.7570691E-001	-4.7593418E-001	-5.903700858823954E-003	2.000000000000000E+000	-2.8520910E-004	2.8097729E-006
2	0	0	1	1	1.160651970679464E+002	-4.7903889E-001	-4.7926503E-001	-5.968326150910280E-003	2.000000000000000E+000	-2.8620067E-004	2.8604099E-006
2	0	0	0	1	1.162317970637378E+002	-4.8237100E-001	-4.8259878E-001	-6.034312458162203E-003	2.000000000000000E+000	-2.8720315E-004	2.9121518E-006
2	0	0	1	1	1.163983970595291E+002	-4.8570305E-001	-4.8593038E-001	-6.099086063026241E-003	2.000000000000000E+000	-2.8821651E-004	2.9637313E-006
2	0	0	0	1	1.165649970553204E+002	-4.8903513E-001	-4.8926383E-001	-6.165558990426045E-003	2.000000000000000E+000	-2.8924074E-004	3.0165850E-006
2	0	0	1	1	1.167315970511117E+002	-4.9236673E-001	-4.9257085E-001	-6.230552758551604E-003	2.000000000000000E+000	-2.9027593E-004	3.0689887E-006
2	0	0	0	1	1.168981970469031E+002	-4.9569878E-001	-4.9592027E-001	-6.296767992492791E-003	2.000000000000000E+000	-2.9132210E-004	3.1226948E-006
2	0	0	1	1	1.170647970426944E+002	-4.9903089E-001	-4.9925864E-001	-6.364421372155045E-003	2.000000000000000E+000	-2.9237941E-004	3.1774923E-006
2	0	0	0	1	1.172313970384857E+002	-5.0236291E-001	-5.0260520E-001	-6.431497106730674E-003	2.000000000000000E+000	-2.9344796E-004	3.2325038E-006
2	0	0	1	1	1.173979970342771E+002	-5.0569499E-001	-5.0592232E-001	-6.498617214554622E-003	2.000000000000000E+000	-2.9452771E-004	3.2877954E-006
2	0	0	0	1	1.175645970300684E+002	-5.0902706E-001	-5.0927329E-001	-6.567502720056517E-003	2.000000000000000E+000	-2.9561878E-004	3.3446538E-006
2	0	0	1	1	1.177311970258597E+002	-5.1235908E-001	-5.1260471E-001	-6.634799145228451E-003	2.000000000000000E+000	-2.9672115E-004	3.4010293E-006
2	0	0	1	1	1.178978970216485E+002	-5.1569289E-001	-5.1590812E-001	-6.702594648568899E-003	2.000000000000000E+000	-2.9783545E-004	3.4579230E-006
2	0	0	0	1	1.180644970174399E+002	-5.1902497E-001	-5.1924407E-001	-6.770466222974600E-003	2.000000000000000E+000	-2.9896040E-004	3.5155244E-006
2	0	0	1	1	1.182310970132312E+002	-5.2235705E-001	-5.2258545E-001	-6.840296350197006E-003	2.000000000000000E+000	-3.0009687E-004	3.5746393E-006
2	0	0	0	1	1.183976970090225E+002	-5.2568913E-001	-5.2591544E-001	-6.910179911711389E-003	2.000000000000000E+000	-3.0124493E-004	3.6341703E-006
2	0	0	1	1	1.185642970048139E+002	-5.2902114E-001	-5.2924889E-001	-6.979966614223079E-003	2.000000000000000E+000	-3.0240460E-004	3.6941397E-006
2	0	0	0	1	1.187308970006052E+002	-5.3235322E-001	-5.3257000E-001	-7.048268311287662E-003	2.000000000000000E+000	-3.0357583E-004	3.7536963E-006
2	0	0	1	1	1.188974969963965E+002	-5.3568524E-001	-5.3590697E-001	-7.117378896516174E-003	2.000000000000000E+000	-3.0475846E-004	3.8142530E-006
2	0	0	0	1	1.190640969921878E+002	-5.3901696E-001	-5.3922367E-001	-7.187002447675374E-003	2.000000000000000E+000	-3.0595265E-004	3.8754019E-006
2	0	0	1	1	1.192306969879792E+002	-5.4234898E-001	-5.4256511E-001	-7.255753779351504E-003	2.000000000000000E+000	-3.0715845E-004	3.9367187E-006
2	0	0	0	1	1.193972969837705E+002	-5.4568100E-001	-5.4589027E-001	-7.326827757930143E-003	2.000000000000000E+000	-3.0837592E-004	3.9996439E-006
2	0	0	1	1	1.195638969795618E+002	-5.4901308E-001	-5.4922271E-001	-7.397159928507801E-003	2.000000000000000E+000	-3.0960512E-004	4.0626883E-006
2	0	0	0	1	1.197304969753532E+002	-5.5234516E-001	-5.5255467E-001	-7.468875774996650E-003	2.000000000000000E+000	-3.1084611E-004	4.1269623E-006
2	0	0	1	1	1.198970969711445E+002	-5.5567718E-001	-5.5590439E-001	-7.537608810591998E-003	2.000000000000000E+000	-3.1209885E-004	4.1901899E-006
2	0	0	0	1	1.200636969669358E+002	-5.5900884E-001	-5.5924708E-001	-7.609683376027160E-003	2.000000000000000E+000	-3.1336339E-004	4.2556931E-006
2	0	0	1	1	1.202302969627272E+002	-5.6234086E-001	-5.6256104E-001	-7.681503167999010E-003	2.000000000000000E+000	-3.1463982E-004	4.3213145E-006
2	0	0	0	1	1.203968969585185E+002	-5.6567293E-001	-5.6588173E-001	-7.752162935496618E-003	2.000000000000000E+000	-3.1592810E-004	4.3868072E-006
2	0	0	1	1	1.205634969543098E+002	-5.6900501E-001	-5.6923819E-001	-7.822826707584885E-003	2.000000000000000E+000	-3.1722814E-004	4.4530516E-006
2	0	0	0	1	1.207300969501011E+002	-5.7233709E-001	-5.7255828E-001	-7.896145942176594E-003	2.000000000000000E+000	-3.1854020E-004	4.5210036E-006
2	0	0	1	1	1.208966969458925E+002	-5.7566911E-001	-5.7588845E-001	-7.967589125574021E-003	2.000000000000000E+000	-3.1986443E-004	4.5884426E-006
2	0	0	0	1	1.210633969416813E+002	-5.7900304E-001	-5.7921815E-001	-8.040422603980177E-003	2.000000000000000E+000	-3.2120140E-004	4.6571586E-006
2	0	0	1	1	1.212299969374726E+002	-5.8233505E-001	-5.8254117E-001	-8.112735980822919E-003	2.000000000000000E+000	-3.2254963E-004	4.7260028E-006
2	0	0	0	1	1.213965969332639E+002	-5.8566719E-001	-5.8589011E-001	-8.186448969990878E-003	2.000000000000000E+000	-3.2391000E-004	4.7963595E-006
2	0	0	1	1	1.215631969290553E+002	-5.8899927E-001	-5.8924371E-001	-8.259307928918935E-003	2.000000000000000E+000	-3.2528257E-004	4.8667453E-006
2	0	0	0	1	1.217297969248466E+002	-5.9233123E-001	-5.9255743E-001	-8.329337844344697E-003	2.000000000000000E+000	-3.2666704E-004	4.9356108E-006
2	0	0	1	1	1.218963969206379E+002	-5.9566337E-001	-5.9588063E-001	-8.402696112927571E-003	2.000000000000000E+000	-3.2806347E-004	5.0070039E-006
2	0	0	0	1	1.220462969168511E+002	-5.9866130E-001	-5.9887010E-001	-8.468943185436173E-003	2.000000000000000E+000	-3.2932989E-004	5.0717967E-006
2	0	0	1	1	1.221049969153682E+002	-6.0016018E-001	-6.0031742E-001	-8.544805925339460E-003	2.000000000000000E+000	-3.2982798E-004	5.1295960E-006