EC-Lab ASCII FILE
Nb header lines : 53                          

Cyclic Voltammetry

Run on channel : 1 (SN 0696)
User : 
Electrode connection : standard
Ewe ctrl range : min = -10.00 V, max = 10.00 V
Ewe,I filtering : 50 kHz
Channel : Grounded
Acquisition started on : 05/17/2017 12:53:20
Saved on :
	File : 100 uM RS 10mM PB_02_CV_C01.mpr
	Directory : \\userfs\st659\w2k\EC-Lab\Data\ITO Characterisation 17-5-17\
	Host : 144.32.136.43
Device : SP-300 (SN 0182)
Address : USB
EC-Lab for windows v10.44 (software)
Internet server v10.44 (firmware)
Command interpretor v10.44 (firmware)
Electrode material : 
Initial state : 
Electrolyte : 
Comments : 
Cable : standard
Electrode surface area : 0.001 cm²
Characteristic mass : 0.001 g
Equivalent Weight : 0.000 g/eq.
Density : 0.000 g/cm3
Ei (V)              0.000               
vs.                 Eoc                 
dE/dt               50.000              
dE/dt unit          mV/s                
E1 (V)              0.100               
vs.                 Ref                 
Step percent        50                  
N                   10                  
E range min (V)     -10.000             
E range max (V)     10.000              
I Range             Auto                
I Range min         Unset               
I Range max         Unset               
I Range init        Unset               
Bandwidth           8                   
E2 (V)              -0.600              
vs.                 Ref                 
nc cycles           2                   
Reverse Scan        1                   
Ef (V)              0.000               
vs.                 Eoc                 

mode	ox/red	error	control changes	counter inc.	time/s	control/V	Ewe/V	<I>/mA	cycle number	(Q-Qo)/C	P/W
2	1	0	0	1	2.651675933013030E+002	-6.0016018E-001	-6.0038227E-001	-9.991206694394350E-003	2.000000000000000E+000	-5.9093207E-005	5.9985432E-006
2	1	0	0	1	2.652043933003733E+002	-5.9832436E-001	-5.9854633E-001	-9.715520881800159E-003	2.000000000000000E+000	-5.9451304E-005	5.8151895E-006
2	1	0	1	1	2.652709932986909E+002	-5.9499228E-001	-5.9522849E-001	-9.433228246126302E-003	2.000000000000000E+000	-6.0087288E-005	5.6149261E-006
2	1	0	0	1	2.653375932970084E+002	-5.9166360E-001	-5.9189582E-001	-9.188021560532935E-003	2.000000000000000E+000	-6.0705879E-005	5.4383518E-006
2	1	0	1	1	2.654041932953260E+002	-5.8833367E-001	-5.8857036E-001	-8.962166473052726E-003	2.000000000000000E+000	-6.1308834E-005	5.2748655E-006
2	1	0	0	1	2.654707932936435E+002	-5.8500278E-001	-5.8521891E-001	-8.753811463453998E-003	2.000000000000000E+000	-6.1897394E-005	5.1228958E-006
2	1	0	0	1	2.655375932919560E+002	-5.8166397E-001	-5.8188385E-001	-8.552537690375756E-003	2.000000000000000E+000	-6.2474057E-005	4.9765836E-006
2	1	0	1	1	2.656041932902735E+002	-5.7833201E-001	-5.7856172E-001	-8.362173773986181E-003	2.000000000000000E+000	-6.3035965E-005	4.8380339E-006
2	1	0	0	1	2.656707932885911E+002	-5.7500327E-001	-5.7523358E-001	-8.183017729532810E-003	2.000000000000000E+000	-6.3585561E-005	4.7071467E-006
2	1	0	1	1	2.657373932869086E+002	-5.7167453E-001	-5.7191753E-001	-8.007536708806710E-003	2.000000000000000E+000	-6.4123364E-005	4.5796505E-006
2	1	0	0	1	2.658039932852262E+002	-5.6834245E-001	-5.6859082E-001	-7.841220068187216E-003	2.000000000000000E+000	-6.4649801E-005	4.4584458E-006
2	1	0	0	1	2.658707932835387E+002	-5.6500369E-001	-5.6524146E-001	-7.680564592903096E-003	2.000000000000000E+000	-6.5166932E-005	4.3413734E-006
2	1	0	1	1	2.659373932818562E+002	-5.6167275E-001	-5.6190658E-001	-7.525400075081054E-003	2.000000000000000E+000	-6.5671986E-005	4.2285719E-006
2	1	0	0	1	2.660039932801737E+002	-5.5834293E-001	-5.5856609E-001	-7.377575941864861E-003	2.000000000000000E+000	-6.6166955E-005	4.1208637E-006
2	1	0	1	1	2.660705932784913E+002	-5.5501425E-001	-5.5525267E-001	-7.232849654930026E-003	2.000000000000000E+000	-6.6652210E-005	4.0160589E-006
2	1	0	1	1	2.661372932768063E+002	-5.5167764E-001	-5.5189246E-001	-7.091580983801388E-003	2.000000000000000E+000	-6.7128654E-005	3.9137899E-006
2	1	0	0	1	2.662039932751213E+002	-5.4834342E-001	-5.4855829E-001	-6.957204436957139E-003	2.000000000000000E+000	-6.7595887E-005	3.8164321E-006
2	1	0	1	1	2.662705932734389E+002	-5.4501361E-001	-5.4522681E-001	-6.825433179002791E-003	2.000000000000000E+000	-6.8053567E-005	3.7214093E-006
2	1	0	0	1	2.663371932717564E+002	-5.4168260E-001	-5.4189414E-001	-6.698827376234229E-003	2.000000000000000E+000	-6.8502661E-005	3.6300553E-006
2	1	0	1	1	2.664037932700739E+002	-5.3835386E-001	-5.3858393E-001	-6.573875716320912E-003	2.000000000000000E+000	-6.8943373E-005	3.5405837E-006
2	1	0	1	1	2.664704932683890E+002	-5.3501737E-001	-5.3522170E-001	-6.453533166641282E-003	2.000000000000000E+000	-6.9376598E-005	3.4540710E-006
2	1	0	0	1	2.665371932667040E+002	-5.3168315E-001	-5.3190404E-001	-6.337507718622765E-003	2.000000000000000E+000	-6.9801921E-005	3.3709459E-006
2	1	0	1	1	2.666037932650215E+002	-5.2835441E-001	-5.2857834E-001	-6.223184045592255E-003	2.000000000000000E+000	-7.0218935E-005	3.2894402E-006
2	1	0	0	1	2.666703932633391E+002	-5.2502233E-001	-5.2525443E-001	-6.111941894746911E-003	2.000000000000000E+000	-7.0628455E-005	3.2103246E-006
2	1	0	1	1	2.667369932616566E+002	-5.2169359E-001	-5.2192241E-001	-6.002150028351159E-003	2.000000000000000E+000	-7.1030641E-005	3.1326565E-006
2	1	0	1	1	2.668036932599716E+002	-5.1835817E-001	-5.1858664E-001	-5.895881346470525E-003	2.000000000000000E+000	-7.1426213E-005	3.0575252E-006
2	1	0	0	1	2.668703932582866E+002	-5.1502281E-001	-5.1525027E-001	-5.793562470302466E-003	2.000000000000000E+000	-7.1814851E-005	2.9851346E-006
2	1	0	1	1	2.669369932566042E+002	-5.1169401E-001	-5.1192111E-001	-5.694623670180872E-003	2.000000000000000E+000	-7.2196199E-005	2.9151981E-006
2	1	0	0	1	2.670035932549217E+002	-5.0836313E-001	-5.0859469E-001	-5.594954570537380E-003	2.000000000000000E+000	-7.2570903E-005	2.8455643E-006
2	1	0	1	1	2.670701932532393E+002	-5.0503325E-001	-5.0524664E-001	-5.498304123291380E-003	2.000000000000000E+000	-7.2939110E-005	2.7779997E-006
2	1	0	1	1	2.671368932515543E+002	-5.0169891E-001	-5.0192207E-001	-5.406083527742390E-003	2.000000000000000E+000	-7.3301562E-005	2.7134327E-006
2	1	0	0	1	2.672035932498693E+002	-4.9836245E-001	-4.9857628E-001	-5.312565799551729E-003	2.000000000000000E+000	-7.3657822E-005	2.6487194E-006
2	1	0	1	1	2.672701932481868E+002	-4.9503371E-001	-4.9524239E-001	-5.223771183478110E-003	2.000000000000000E+000	-7.4007461E-005	2.5870329E-006
2	1	0	0	1	2.673367932465044E+002	-4.9170387E-001	-4.9191093E-001	-5.134679505428827E-003	2.000000000000000E+000	-7.4351206E-005	2.5258050E-006
2	1	0	1	1	2.674033932448219E+002	-4.8837295E-001	-4.8859435E-001	-5.049801854120486E-003	2.000000000000000E+000	-7.4689167E-005	2.4673047E-006
2	1	0	1	1	2.674701932431344E+002	-4.8503423E-001	-4.8525634E-001	-4.964981297006836E-003	2.000000000000000E+000	-7.5022479E-005	2.4092888E-006
2	1	0	0	1	2.675367932414520E+002	-4.8170215E-001	-4.8191765E-001	-4.881746761998873E-003	2.000000000000000E+000	-7.5349199E-005	2.3525999E-006
2	1	0	1	1	2.676033932397695E+002	-4.7837344E-001	-4.7860438E-001	-4.800385497892148E-003	2.000000000000000E+000	-7.5670439E-005	2.2974855E-006
2	1	0	0	1	2.676699932380870E+002	-4.7504357E-001	-4.7525895E-001	-4.720979476207324E-003	2.000000000000000E+000	-7.5986318E-005	2.2436877E-006
2	1	0	1	1	2.677365932364046E+002	-4.7171262E-001	-4.7193101E-001	-4.643704167713723E-003	2.000000000000000E+000	-7.6297001E-005	2.1915080E-006
2	1	0	1	1	2.678033932347171E+002	-4.6837386E-001	-4.6858865E-001	-4.566401364196823E-003	2.000000000000000E+000	-7.6603443E-005	2.1397639E-006
2	1	0	0	1	2.678699932330346E+002	-4.6504292E-001	-4.6523887E-001	-4.490896278409859E-003	2.000000000000000E+000	-7.6903874E-005	2.0893394E-006
2	1	0	1	1	2.679365932313522E+002	-4.6171311E-001	-4.6191674E-001	-4.417621255456319E-003	2.000000000000000E+000	-7.7199358E-005	2.0405732E-006
2	1	0	0	1	2.680031932296697E+002	-4.5838439E-001	-4.5857927E-001	-4.345494119095294E-003	2.000000000000000E+000	-7.7490018E-005	1.9927536E-006
2	1	0	1	1	2.680697932279872E+002	-4.5505229E-001	-4.5522419E-001	-4.274203099058932E-003	2.000000000000000E+000	-7.7775891E-005	1.9457207E-006
2	1	0	1	1	2.681365932262997E+002	-4.5171356E-001	-4.5189151E-001	-4.205476412462300E-003	2.000000000000000E+000	-7.8057958E-005	1.9004191E-006
2	1	0	0	1	2.682031932246173E+002	-4.4838375E-001	-4.4856709E-001	-4.137744790977338E-003	2.000000000000000E+000	-7.8334640E-005	1.8560562E-006
2	1	0	1	1	2.682697932229348E+002	-4.4505280E-001	-4.4525725E-001	-4.072080916311505E-003	2.000000000000000E+000	-7.8606870E-005	1.8131235E-006
2	1	0	0	1	2.683363932212524E+002	-4.4172409E-001	-4.4194350E-001	-4.005610508984899E-003	2.000000000000000E+000	-7.8874691E-005	1.7702536E-006
2	1	0	0	1	2.684030932195674E+002	-4.3838751E-001	-4.3858096E-001	-3.940971187593734E-003	2.000000000000000E+000	-7.9138568E-005	1.7284349E-006
2	1	0	1	1	2.684697932178824E+002	-4.3505326E-001	-4.3524194E-001	-3.876964613785273E-003	2.000000000000000E+000	-7.9398145E-005	1.6874176E-006
2	1	0	0	1	2.685363932161999E+002	-4.3172342E-001	-4.3191338E-001	-3.814769092809540E-003	2.000000000000000E+000	-7.9653153E-005	1.6476498E-006
2	1	0	1	1	2.686029932145175E+002	-4.2839247E-001	-4.2859781E-001	-3.754551625919457E-003	2.000000000000000E+000	-7.9904086E-005	1.6091926E-006
2	1	0	0	1	2.686695932128350E+002	-4.2506373E-001	-4.2526731E-001	-3.694829054162281E-003	2.000000000000000E+000	-8.0150996E-005	1.5712900E-006
2	1	0	0	1	2.687362932111500E+002	-4.2172831E-001	-4.2194909E-001	-3.634636537535766E-003	2.000000000000000E+000	-8.0394289E-005	1.5336316E-006
2	1	0	1	1	2.688029932094651E+002	-4.1839296E-001	-4.1860968E-001	-3.577929150772763E-003	2.000000000000000E+000	-8.0633683E-005	1.4977558E-006
2	1	0	0	1	2.688695932077826E+002	-4.1506422E-001	-4.1526493E-001	-3.520704021587398E-003	2.000000000000000E+000	-8.0868915E-005	1.4620249E-006
2	1	0	1	1	2.689361932061001E+002	-4.1173217E-001	-4.1192448E-001	-3.464569009235960E-003	2.000000000000000E+000	-8.1100377E-005	1.4271408E-006
2	1	0	0	1	2.690027932044177E+002	-4.0840343E-001	-4.0860462E-001	-3.410252346592237E-003	2.000000000000000E+000	-8.1328166E-005	1.3934449E-006
2	1	0	0	1	2.690694932027327E+002	-4.0506911E-001	-4.0527096E-001	-3.355390848056910E-003	2.000000000000000E+000	-8.1552687E-005	1.3598425E-006
2	1	0	1	1	2.691361932010477E+002	-4.0173265E-001	-4.0195304E-001	-3.302504295066773E-003	2.000000000000000E+000	-8.1773607E-005	1.3274516E-006
2	1	0	0	1	2.692027931993653E+002	-3.9840391E-001	-3.9862245E-001	-3.250429875137227E-003	2.000000000000000E+000	-8.1990700E-005	1.2956943E-006
2	1	0	1	1	2.692693931976828E+002	-3.9507294E-001	-3.9530635E-001	-3.199070583656927E-003	2.000000000000000E+000	-8.2204351E-005	1.2646129E-006
2	1	0	0	1	2.693359931960003E+002	-3.9174309E-001	-3.9196616E-001	-3.147878410025298E-003	2.000000000000000E+000	-8.2414575E-005	1.2338618E-006
2	1	0	0	1	2.694026931943154E+002	-3.8840881E-001	-3.8862321E-001	-3.097817302919823E-003	2.000000000000000E+000	-8.2621737E-005	1.2038837E-006
2	1	0	1	1	2.694693931926304E+002	-3.8507232E-001	-3.8530847E-001	-3.048564607340230E-003	2.000000000000000E+000	-8.2825594E-005	1.1746378E-006
2	1	0	0	1	2.695359931909479E+002	-3.8174358E-001	-3.8196322E-001	-2.998950574265830E-003	2.000000000000000E+000	-8.3025858E-005	1.1454888E-006
2	1	0	1	1	2.696025931892655E+002	-3.7841377E-001	-3.7860167E-001	-2.951468610973132E-003	2.000000000000000E+000	-8.3222891E-005	1.1174310E-006
2	1	0	0	1	2.696691931875830E+002	-3.7508279E-001	-3.7526694E-001	-2.904387813868065E-003	2.000000000000000E+000	-8.3416780E-005	1.0899207E-006
2	1	0	0	1	2.697359931858955E+002	-3.7174407E-001	-3.7194178E-001	-2.857223267390296E-003	2.000000000000000E+000	-8.3608109E-005	1.0627207E-006
2	1	0	1	1	2.698025931842130E+002	-3.6841202E-001	-3.6859292E-001	-2.811677793589276E-003	2.000000000000000E+000	-8.3795770E-005	1.0363646E-006
2	1	0	0	1	2.698691931825306E+002	-3.6508328E-001	-3.6527953E-001	-2.766991983971708E-003	2.000000000000000E+000	-8.3980420E-005	1.0107256E-006
2	1	0	1	1	2.699357931808481E+002	-3.6175454E-001	-3.6194485E-001	-2.722166982609815E-003	2.000000000000000E+000	-8.4162093E-005	9.8527437E-007
2	1	0	0	1	2.700023931791657E+002	-3.5842249E-001	-3.5862821E-001	-2.677240964444189E-003	2.000000000000000E+000	-8.4340783E-005	9.6013412E-007
2	1	0	0	1	2.700691931774782E+002	-3.5508376E-001	-3.5528076E-001	-2.634116955949437E-003	2.000000000000000E+000	-8.4517058E-005	9.3585106E-007
2	1	0	1	1	2.701357931757957E+002	-3.5175282E-001	-3.5196623E-001	-2.590308784989920E-003	2.000000000000000E+000	-8.4689927E-005	9.1170125E-007
2	1	0	0	1	2.702023931741132E+002	-3.4842297E-001	-3.4862494E-001	-2.546964797937229E-003	2.000000000000000E+000	-8.4859879E-005	8.8793547E-007
2	1	0	1	1	2.702689931724308E+002	-3.4509426E-001	-3.4530029E-001	-2.504661115667134E-003	2.000000000000000E+000	-8.5026986E-005	8.6486023E-007
2	1	0	1	1	2.703356931707458E+002	-3.4175771E-001	-3.4197751E-001	-2.462528358016285E-003	2.000000000000000E+000	-8.5191525E-005	8.4212928E-007
2	1	0	0	1	2.704023931690608E+002	-3.3842346E-001	-3.3861095E-001	-2.419430878355000E-003	2.000000000000000E+000	-8.5353226E-005	8.1924577E-007
2	1	0	1	1	2.704689931673784E+002	-3.3509359E-001	-3.3526939E-001	-2.378781430417184E-003	2.000000000000000E+000	-8.5511892E-005	7.9753261E-007
2	1	0	0	1	2.705355931656959E+002	-3.3176264E-001	-3.3193833E-001	-2.336919306081396E-003	2.000000000000000E+000	-8.5667809E-005	7.7571309E-007
2	1	0	1	1	2.706021931640134E+002	-3.2843390E-001	-3.2861069E-001	-2.295824378669549E-003	2.000000000000000E+000	-8.5820968E-005	7.5443245E-007
2	1	0	1	1	2.706688931623285E+002	-3.2509741E-001	-3.2528049E-001	-2.255225251251956E-003	2.000000000000000E+000	-8.5971638E-005	7.3358075E-007
2	1	0	0	1	2.707355931606435E+002	-3.2176310E-001	-3.2193404E-001	-2.214825172820283E-003	2.000000000000000E+000	-8.6119609E-005	7.1302765E-007
2	1	0	1	1	2.708021931589610E+002	-3.1843439E-001	-3.1863248E-001	-2.175641504356292E-003	2.000000000000000E+000	-8.6264714E-005	6.9323005E-007
2	1	0	0	1	2.708687931572786E+002	-3.1510234E-001	-3.1529775E-001	-2.134992744540956E-003	2.000000000000000E+000	-8.6407141E-005	6.7315841E-007
2	1	0	1	1	2.709353931555961E+002	-3.1177363E-001	-3.1197602E-001	-2.095764731772060E-003	2.000000000000000E+000	-8.6546919E-005	6.5382835E-007
2	1	0	1	1	2.710020931539111E+002	-3.0843818E-001	-3.0863342E-001	-2.056464088903944E-003	2.000000000000000E+000	-8.6684297E-005	6.3469355E-007
2	1	0	0	1	2.710687931522261E+002	-3.0510280E-001	-3.0529982E-001	-2.017204010082915E-003	2.000000000000000E+000	-8.6819047E-005	6.1585200E-007
2	1	0	1	1	2.711353931505437E+002	-3.0177408E-001	-3.0196077E-001	-1.979217913679540E-003	2.000000000000000E+000	-8.6951026E-005	5.9764614E-007
2	1	0	0	1	2.712019931488612E+002	-2.9844314E-001	-2.9862967E-001	-1.940145234204431E-003	2.000000000000000E+000	-8.7080443E-005	5.7938496E-007
2	1	0	1	1	2.712685931471788E+002	-2.9511330E-001	-2.9528135E-001	-1.901070829564580E-003	2.000000000000000E+000	-8.7207241E-005	5.6135076E-007
2	1	0	1	1	2.713352931454938E+002	-2.9177898E-001	-2.9195908E-001	-1.864126890960902E-003	2.000000000000000E+000	-8.7331719E-005	5.4424879E-007
2	1	0	0	1	2.714019931438088E+002	-2.8844249E-001	-2.8860718E-001	-1.826459294844348E-003	2.000000000000000E+000	-8.7453693E-005	5.2712926E-007
2	1	0	1	1	2.714685931421263E+002	-2.8511375E-001	-2.8527579E-001	-1.788816703808583E-003	2.000000000000000E+000	-8.7572997E-005	5.1030611E-007
2	1	0	0	1	2.715351931404439E+002	-2.8178284E-001	-2.8194028E-001	-1.752533879533596E-003	2.000000000000000E+000	-8.7689819E-005	4.9410988E-007
2	1	0	1	1	2.716017931387614E+002	-2.7845296E-001	-2.7861956E-001	-1.716165132184162E-003	2.000000000000000E+000	-8.7804226E-005	4.7815718E-007
2	1	0	1	1	2.716685931370739E+002	-2.7511424E-001	-2.7529037E-001	-1.681012881064918E-003	2.000000000000000E+000	-8.7916596E-005	4.6276665E-007
2	1	0	0	1	2.717351931353915E+002	-2.7178219E-001	-2.7194473E-001	-1.644736710065537E-003	2.000000000000000E+000	-8.8026260E-005	4.4727747E-007
2	1	0	1	1	2.718017931337090E+002	-2.6845342E-001	-2.6861113E-001	-1.610245265071437E-003	2.000000000000000E+000	-8.8133558E-005	4.3252982E-007
2	1	0	0	1	2.718683931320265E+002	-2.6512361E-001	-2.6531467E-001	-1.575621282808953E-003	2.000000000000000E+000	-8.8238550E-005	4.1803543E-007
2	1	0	1	1	2.719349931303441E+002	-2.6179263E-001	-2.6196134E-001	-1.541422090171920E-003	2.000000000000000E+000	-8.8341250E-005	4.0379300E-007
2	1	0	1	1	2.720017931286566E+002	-2.5845394E-001	-2.5863427E-001	-1.508683167312182E-003	2.000000000000000E+000	-8.8442044E-005	3.9019716E-007
2	1	0	0	1	2.720683931269741E+002	-2.5512296E-001	-2.5529259E-001	-1.477118270158909E-003	2.000000000000000E+000	-8.8540386E-005	3.7709736E-007
2	1	0	1	1	2.721349931252917E+002	-2.5179315E-001	-2.5197306E-001	-1.445082429189677E-003	2.000000000000000E+000	-8.8636618E-005	3.6412186E-007
2	1	0	0	1	2.722015931236092E+002	-2.4846441E-001	-2.4866274E-001	-1.415346553682806E-003	2.000000000000000E+000	-8.8730783E-005	3.5194395E-007
2	1	0	1	1	2.722681931219267E+002	-2.4513234E-001	-2.4533641E-001	-1.385617472347681E-003	2.000000000000000E+000	-8.8822970E-005	3.3994243E-007
2	1	0	1	1	2.723349931202392E+002	-2.4179359E-001	-2.4198414E-001	-1.356358815021073E-003	2.000000000000000E+000	-8.8913454E-005	3.2821734E-007
2	1	0	0	1	2.724015931185568E+002	-2.3846266E-001	-2.3864928E-001	-1.329504174860147E-003	2.000000000000000E+000	-8.9001813E-005	3.1728521E-007
2	1	0	1	1	2.724681931168743E+002	-2.3513280E-001	-2.3532034E-001	-1.303963393733766E-003	2.000000000000000E+000	-8.9088433E-005	3.0684910E-007
2	1	0	0	1	2.725347931151919E+002	-2.3180409E-001	-2.3201765E-001	-1.279740058480756E-003	2.000000000000000E+000	-8.9173402E-005	2.9692228E-007
2	1	0	0	1	2.726014931135069E+002	-2.2846757E-001	-2.2867115E-001	-1.255916770765011E-003	2.000000000000000E+000	-8.9256886E-005	2.8719194E-007
2	1	0	1	1	2.726681931118219E+002	-2.2513330E-001	-2.2532992E-001	-1.233240145598214E-003	2.000000000000000E+000	-8.9338835E-005	2.7788590E-007
2	1	0	0	1	2.727347931101394E+002	-2.2180344E-001	-2.2198913E-001	-1.212271579552452E-003	2.000000000000000E+000	-8.9419198E-005	2.6911110E-007
2	1	0	1	1	2.728013931084570E+002	-2.1847250E-001	-2.1865755E-001	-1.193277376967623E-003	2.000000000000000E+000	-8.9498244E-005	2.6091911E-007
2	1	0	0	1	2.728679931067745E+002	-2.1514378E-001	-2.1532612E-001	-1.175002037400237E-003	2.000000000000000E+000	-8.9576039E-005	2.5300864E-007
2	1	0	0	1	2.729346931050895E+002	-2.1180837E-001	-2.1199742E-001	-1.157448509115137E-003	2.000000000000000E+000	-8.9652756E-005	2.4537610E-007
2	1	0	1	1	2.730013931034046E+002	-2.0847298E-001	-2.0863895E-001	-1.140971899464223E-003	2.000000000000000E+000	-8.9728332E-005	2.3805119E-007
2	1	0	0	1	2.730679931017221E+002	-2.0514424E-001	-2.0531194E-001	-1.126111651606979E-003	2.000000000000000E+000	-8.9802772E-005	2.3120417E-007
2	1	0	1	1	2.731345931000396E+002	-2.0181218E-001	-2.0196436E-001	-1.112125940975552E-003	2.000000000000000E+000	-8.9876245E-005	2.2460981E-007
2	1	0	0	1	2.732011930983572E+002	-1.9848344E-001	-1.9865076E-001	-1.098995570740132E-003	2.000000000000000E+000	-8.9948808E-005	2.1831630E-007
2	1	0	0	1	2.732678930966722E+002	-1.9514915E-001	-1.9532511E-001	-1.087060139948276E-003	2.000000000000000E+000	-9.0020651E-005	2.1233014E-007
2	1	0	1	1	2.733345930949872E+002	-1.9181266E-001	-1.9198956E-001	-1.074700209350569E-003	2.000000000000000E+000	-9.0091700E-005	2.0633122E-007
2	1	0	0	1	2.734011930933048E+002	-1.8848392E-001	-1.8867476E-001	-1.063573611719893E-003	2.000000000000000E+000	-9.0161862E-005	2.0066950E-007
2	1	0	1	1	2.734677930916223E+002	-1.8515298E-001	-1.8534133E-001	-1.052384379168443E-003	2.000000000000000E+000	-9.0231268E-005	1.9505032E-007
2	1	0	0	1	2.735343930899398E+002	-1.8182312E-001	-1.8199411E-001	-1.042084848433225E-003	2.000000000000000E+000	-9.0299953E-005	1.8965331E-007
2	1	0	0	1	2.736010930882549E+002	-1.7848885E-001	-1.7867519E-001	-1.031439954519334E-003	2.000000000000000E+000	-9.0368048E-005	1.8429273E-007
2	1	0	1	1	2.736677930865699E+002	-1.7515235E-001	-1.7532688E-001	-1.021797009403178E-003	2.000000000000000E+000	-9.0435475E-005	1.7914849E-007
2	1	0	0	1	2.737343930848874E+002	-1.7182362E-001	-1.7200038E-001	-1.012037747081559E-003	2.000000000000000E+000	-9.0502152E-005	1.7407088E-007
2	1	0	1	1	2.738009930832050E+002	-1.6849376E-001	-1.6867016E-001	-1.002882281512095E-003	2.000000000000000E+000	-9.0568188E-005	1.6915632E-007
2	1	0	0	1	2.738675930815225E+002	-1.6516283E-001	-1.6532122E-001	-9.932014095426402E-004	2.000000000000000E+000	-9.0633599E-005	1.6419726E-007
2	1	0	0	1	2.739343930798350E+002	-1.6182411E-001	-1.6197681E-001	-9.840424186276934E-004	2.000000000000000E+000	-9.0698595E-005	1.5939206E-007
2	1	0	1	1	2.740009930781525E+002	-1.5849203E-001	-1.5865144E-001	-9.749265612456039E-004	2.000000000000000E+000	-9.0762791E-005	1.5467350E-007
2	1	0	0	1	2.740675930764701E+002	-1.5516330E-001	-1.5530799E-001	-9.660944927163491E-004	2.000000000000000E+000	-9.0826368E-005	1.5004220E-007
2	1	0	1	1	2.741341930747876E+002	-1.5183458E-001	-1.5199052E-001	-9.580194931297168E-004	2.000000000000000E+000	-9.0889400E-005	1.4560987E-007
2	1	0	0	1	2.742007930731052E+002	-1.4850251E-001	-1.4865327E-001	-9.498310879646520E-004	2.000000000000000E+000	-9.0951871E-005	1.4119550E-007
2	1	0	0	1	2.742675930714177E+002	-1.4516377E-001	-1.4531818E-001	-9.406406821561991E-004	2.000000000000000E+000	-9.1013972E-005	1.3669219E-007
2	1	0	1	1	2.743341930697352E+002	-1.4183283E-001	-1.4200778E-001	-9.328988680347393E-004	2.000000000000000E+000	-9.1075322E-005	1.3247890E-007
2	1	0	0	1	2.744007930680527E+002	-1.3850299E-001	-1.3866115E-001	-9.245959581381420E-004	2.000000000000000E+000	-9.1136135E-005	1.2820554E-007
2	1	0	1	1	2.744673930663703E+002	-1.3517426E-001	-1.3532826E-001	-9.160926186026486E-004	2.000000000000000E+000	-9.1196380E-005	1.2397322E-007
2	1	0	0	1	2.745339930646878E+002	-1.3184220E-001	-1.3200265E-001	-9.086847226258583E-004	2.000000000000000E+000	-9.1256108E-005	1.1994879E-007
2	1	0	0	1	2.746007930630003E+002	-1.2850346E-001	-1.2867486E-001	-9.003931864172759E-004	2.000000000000000E+000	-9.1315495E-005	1.1585797E-007
2	1	0	1	1	2.746673930613179E+002	-1.2517363E-001	-1.2532458E-001	-8.917332992524653E-004	2.000000000000000E+000	-9.1374131E-005	1.1175610E-007
2	1	0	0	1	2.747339930596354E+002	-1.2184265E-001	-1.2199787E-001	-8.840399541555112E-004	2.000000000000000E+000	-9.1432208E-005	1.0785099E-007
2	1	0	1	1	2.748005930579529E+002	-1.1851395E-001	-1.1867370E-001	-8.761796451665811E-004	2.000000000000000E+000	-9.1489776E-005	1.0397948E-007
2	1	0	1	1	2.748672930562680E+002	-1.1517742E-001	-1.1532294E-001	-8.680775367473307E-004	2.000000000000000E+000	-9.1546899E-005	1.0010925E-007
2	1	0	0	1	2.749339930545830E+002	-1.1184315E-001	-1.1196507E-001	-8.605714059264106E-004	2.000000000000000E+000	-9.1603513E-005	9.6353936E-008
2	1	0	1	1	2.750005930529005E+002	-1.0851442E-001	-1.0867126E-001	-8.527667674781518E-004	2.000000000000000E+000	-9.1659524E-005	9.2671243E-008
2	1	0	0	1	2.750671930512181E+002	-1.0518235E-001	-1.0533208E-001	-8.453409395046746E-004	2.000000000000000E+000	-9.1715025E-005	8.9041521E-008
2	1	0	1	1	2.751337930495356E+002	-1.0185362E-001	-1.0200545E-001	-8.374423443084445E-004	2.000000000000000E+000	-9.1770016E-005	8.5423686E-008
2	1	0	1	1	2.752004930478506E+002	-9.8518223E-002	-9.8675393E-002	-8.301124446789161E-004	2.000000000000000E+000	-9.1824586E-005	8.1911672E-008
2	1	0	0	1	2.752671930461656E+002	-9.5182829E-002	-9.5344499E-002	-8.222883050160515E-004	2.000000000000000E+000	-9.1878632E-005	7.8400667E-008
2	1	0	1	1	2.753337930444832E+002	-9.1854103E-002	-9.2004627E-002	-8.144513691585663E-004	2.000000000000000E+000	-9.1932088E-005	7.4933297E-008
2	1	0	0	1	2.754003930428007E+002	-8.8522032E-002	-8.8679925E-002	-8.072659743781803E-004	2.000000000000000E+000	-9.1985050E-005	7.1588289E-008
2	1	0	1	1	2.754669930411183E+002	-8.5193306E-002	-8.5358813E-002	-7.997058899907213E-004	2.000000000000000E+000	-9.2037524E-005	6.8261947E-008
2	1	0	1	1	2.755336930394333E+002	-8.1859015E-002	-8.2015306E-002	-7.923779982674777E-004	2.000000000000000E+000	-9.2089576E-005	6.4987127E-008
2	1	0	0	1	2.756003930377483E+002	-7.8522518E-002	-7.8685574E-002	-7.850649904678512E-004	2.000000000000000E+000	-9.2141134E-005	6.1773292E-008
2	1	0	1	1	2.756669930360658E+002	-7.5193785E-002	-7.5377122E-002	-7.777728832079021E-004	2.000000000000000E+000	-9.2192131E-005	5.8626281E-008
2	1	0	0	1	2.757335930343834E+002	-7.1862832E-002	-7.2032973E-002	-7.695594834939441E-004	2.000000000000000E+000	-9.2242612E-005	5.5433656E-008
2	1	0	1	1	2.758001930327009E+002	-6.8532988E-002	-6.8685003E-002	-7.625107067565961E-004	2.000000000000000E+000	-9.2292590E-005	5.2373050E-008
2	1	0	1	1	2.758669930310134E+002	-6.5194264E-002	-6.5352306E-002	-7.552970895494714E-004	2.000000000000000E+000	-9.2342241E-005	4.9360406E-008
2	1	0	0	1	2.759335930293310E+002	-6.1862197E-002	-6.2023021E-002	-7.487286420050660E-004	2.000000000000000E+000	-9.2391274E-005	4.6438412E-008
2	1	0	1	1	2.760001930276485E+002	-5.8533467E-002	-5.8695037E-002	-7.409558359307462E-004	2.000000000000000E+000	-9.2439848E-005	4.3490431E-008
2	1	0	0	1	2.760667930259660E+002	-5.5203628E-002	-5.5374254E-002	-7.337408869272609E-004	2.000000000000000E+000	-9.2487913E-005	4.0630354E-008
2	1	0	1	1	2.761333930242836E+002	-5.1872674E-002	-5.2061476E-002	-7.264160325698953E-004	2.000000000000000E+000	-9.2535491E-005	3.7818289E-008
2	1	0	1	1	2.762001930225961E+002	-4.8533950E-002	-4.8709832E-002	-7.192243311592177E-004	2.000000000000000E+000	-9.2582726E-005	3.5033295E-008
2	1	0	0	1	2.762667930209136E+002	-4.5202993E-002	-4.5372516E-002	-7.128241604087288E-004	2.000000000000000E+000	-9.2629380E-005	3.2342626E-008
2	1	0	1	1	2.763333930192312E+002	-4.1873153E-002	-4.2041268E-002	-7.047972806129349E-004	2.000000000000000E+000	-9.2675538E-005	2.9630572E-008
2	1	0	0	1	2.763999930175487E+002	-3.8544424E-002	-3.8696494E-002	-6.978107370283699E-004	2.000000000000000E+000	-9.2721195E-005	2.7002828E-008
2	1	0	1	1	2.764665930158662E+002	-3.5212357E-002	-3.5371237E-002	-6.910582267644939E-004	2.000000000000000E+000	-9.2766393E-005	2.4443583E-008
2	1	0	1	1	2.765333930141787E+002	-3.1873632E-002	-3.2032181E-002	-6.838662338283091E-004	2.000000000000000E+000	-9.2811279E-005	2.1905727E-008
2	1	0	0	1	2.765999930124963E+002	-2.8542679E-002	-2.8698826E-002	-6.768815762442388E-004	2.000000000000000E+000	-9.2855546E-005	1.9425707E-008
2	1	0	1	1	2.766665930108138E+002	-2.5212837E-002	-2.5355332E-002	-6.704127470727825E-004	2.000000000000000E+000	-9.2899369E-005	1.6998538E-008
2	1	0	0	1	2.767331930091314E+002	-2.1884108E-002	-2.2031568E-002	-6.634503392594635E-004	2.000000000000000E+000	-9.2942733E-005	1.4616851E-008
2	1	0	0	1	2.767998930074464E+002	-1.8547596E-002	-1.8710257E-002	-6.564712491761984E-004	2.000000000000000E+000	-9.2985712E-005	1.2282746E-008
2	1	0	1	1	2.768665930057614E+002	-1.5213315E-002	-1.5373200E-002	-6.499669671040671E-004	2.000000000000000E+000	-9.3028233E-005	9.9920721E-009
2	1	0	0	1	2.769331930040789E+002	-1.1883473E-002	-1.2054516E-002	-6.426358640108419E-004	2.000000000000000E+000	-9.3070237E-005	7.7466646E-009
2	1	0	1	1	2.769997930023965E+002	-8.5525215E-003	-8.7283142E-003	-6.357884769891816E-004	2.000000000000000E+000	-9.3111776E-005	5.5493614E-009
2	1	0	0	1	2.770663930007140E+002	-5.2237902E-003	-5.3926823E-003	-6.291907128475709E-004	2.000000000000000E+000	-9.3152863E-005	3.3930256E-009
2	1	0	0	1	2.771330929990290E+002	-1.8883952E-003	-2.0544159E-003	-6.225280737473336E-004	2.000000000000000E+000	-9.3193572E-005	1.2789315E-009
2	1	0	1	1	2.771997929973440E+002	1.4531330E-003	1.2941789E-003	-6.151795422539019E-004	2.000000000000000E+000	-9.3233793E-005	7.9615237E-010
2	1	0	0	1	2.772663929956616E+002	4.7757290E-003	4.6387818E-003	-6.084926895928693E-004	2.000000000000000E+000	-9.3273491E-005	2.8226648E-009
2	1	0	1	1	2.773329929939791E+002	8.1077907E-003	7.9774186E-003	-6.018899736190215E-004	2.000000000000000E+000	-9.3312767E-005	4.8015281E-009
2	1	0	0	1	2.773995929922967E+002	1.1436520E-002	1.1315485E-002	-5.951448542211336E-004	2.000000000000000E+000	-9.3351591E-005	6.7343522E-009
2	1	0	0	1	2.774662929906117E+002	1.4771914E-002	1.4670121E-002	-5.881740638095101E-004	2.000000000000000E+000	-9.3390008E-005	8.6285850E-009
2	1	0	1	1	2.775329929889267E+002	1.8107308E-002	1.7987840E-002	-5.818142329540570E-004	2.000000000000000E+000	-9.3427974E-005	1.0465581E-008
2	1	0	0	1	2.775995929872443E+002	2.1436036E-002	2.1325223E-002	-5.752745092560806E-004	2.000000000000000E+000	-9.3465482E-005	1.2267857E-008
2	1	0	1	1	2.776661929855618E+002	2.4766985E-002	2.4638036E-002	-5.681107093939326E-004	2.000000000000000E+000	-9.3502509E-005	1.3997132E-008
2	1	0	0	1	2.777327929838793E+002	2.8096829E-002	2.7966777E-002	-5.618519616920762E-004	2.000000000000000E+000	-9.3539100E-005	1.5713189E-008
2	1	0	0	1	2.777994929821944E+002	3.1431105E-002	3.1311158E-002	-5.544945643741047E-004	2.000000000000000E+000	-9.3575305E-005	1.7361867E-008
2	1	0	1	1	2.778661929805094E+002	3.4767617E-002	3.4655288E-002	-5.473806287383219E-004	2.000000000000000E+000	-9.3611030E-005	1.8969633E-008
2	1	0	0	1	2.779327929788269E+002	3.8096346E-002	3.7970085E-002	-5.415102403823154E-004	2.000000000000000E+000	-9.3646253E-005	2.0561190E-008
2	1	0	1	1	2.779993929771445E+002	4.1426186E-002	4.1289832E-002	-5.346081417043232E-004	2.000000000000000E+000	-9.3681047E-005	2.2073881E-008
2	1	0	0	1	2.780659929754620E+002	4.4757131E-002	4.4638656E-002	-5.263001551294088E-004	2.000000000000000E+000	-9.3715338E-005	2.3493332E-008
2	1	0	0	1	2.781327929737745E+002	4.8095863E-002	4.7995012E-002	-5.203176335601685E-004	2.000000000000000E+000	-9.3749259E-005	2.4972652E-008
2	1	0	1	1	2.781993929720920E+002	5.1427919E-002	5.1338427E-002	-5.131705288998478E-004	2.000000000000000E+000	-9.3782648E-005	2.6345367E-008
2	1	0	0	1	2.782659929704096E+002	5.4756653E-002	5.4662116E-002	-5.068278516950492E-004	2.000000000000000E+000	-9.3815594E-005	2.7704283E-008
2	1	0	1	1	2.783325929687271E+002	5.8086492E-002	5.8007058E-002	-5.006219676825835E-004	2.000000000000000E+000	-9.3848095E-005	2.9039608E-008
2	1	0	0	1	2.783991929670447E+002	6.1417446E-002	6.1325874E-002	-4.943507483251477E-004	2.000000000000000E+000	-9.3880197E-005	3.0316492E-008
2	1	0	0	1	2.784825929649378E+002	6.5587275E-002	6.5494753E-002	-4.861518109880537E-004	2.000000000000000E+000	-9.3920200E-005	3.1840393E-008
2	1	0	1	1	2.785657929628360E+002	6.9747597E-002	6.9621421E-002	-4.775916939593252E-004	2.000000000000000E+000	-9.3959614E-005	3.3250611E-008
2	1	0	1	1	2.786325929611485E+002	7.3086321E-002	7.2957240E-002	-4.707452013994728E-004	2.000000000000000E+000	-9.3990413E-005	3.4344271E-008
2	1	0	0	1	2.786991929594660E+002	7.6417275E-002	7.6303072E-002	-4.634781942184354E-004	2.000000000000000E+000	-9.4020659E-005	3.5364810E-008
2	1	0	1	1	2.787657929577836E+002	7.9747111E-002	7.9627469E-002	-4.571496859278011E-004	2.000000000000000E+000	-9.4050454E-005	3.6401673E-008
2	1	0	0	1	2.788323929561011E+002	8.3075836E-002	8.2952075E-002	-4.508359142188194E-004	2.000000000000000E+000	-9.4079835E-005	3.7397776E-008
2	1	0	0	1	2.788990929544161E+002	8.6412348E-002	8.6260661E-002	-4.443998095640107E-004	2.000000000000000E+000	-9.4108807E-005	3.8334221E-008
2	1	0	1	1	2.789657929527311E+002	8.9746632E-002	8.9629166E-002	-4.371000993623802E-004	2.000000000000000E+000	-9.4137336E-005	3.9176918E-008
2	1	0	0	1	2.790323929510487E+002	9.3076468E-002	9.2941128E-002	-4.305311536187376E-004	2.000000000000000E+000	-9.4165371E-005	4.0014051E-008
2	1	0	1	1	2.790989929493662E+002	9.6407428E-002	9.6273027E-002	-4.238908305384594E-004	2.000000000000000E+000	-9.4192947E-005	4.0809255E-008
2	1	0	0	1	2.791489929481031E+002	9.8906472E-002	9.8799564E-002	-4.182720431882591E-004	2.000000000000000E+000	-9.4213377E-005	4.1325094E-008
2	0	0	1	1	2.791693929475878E+002	9.9906117E-002	9.9764995E-002	-4.189575985564216E-004	2.000000000000000E+000	-9.4221657E-005	4.1797303E-008
2	0	0	1	1	2.792061929466581E+002	9.8070115E-002	9.7923815E-002	-5.550170923168667E-004	2.000000000000000E+000	-9.4242110E-005	5.4349393E-008
2	0	0	0	1	2.792727929449757E+002	9.4740279E-002	9.4575308E-002	-6.100320226176265E-004	2.000000000000000E+000	-9.4281939E-005	5.7693967E-008
2	0	0	1	1	2.793393929432932E+002	9.1409333E-002	9.1258310E-002	-6.478955239413720E-004	2.000000000000000E+000	-9.4324758E-005	5.9125849E-008
2	0	0	0	1	2.794059929416107E+002	8.8080592E-002	8.7914355E-002	-6.814872966196175E-004	2.000000000000000E+000	-9.4369942E-005	5.9912516E-008
2	0	0	0	1	2.794726929399258E+002	8.4744088E-002	8.4590875E-002	-7.115255880623395E-004	2.000000000000000E+000	-9.4417293E-005	6.0188569E-008
2	0	0	1	1	2.795393929382408E+002	8.1409819E-002	8.1267655E-002	-7.402468368141162E-004	2.000000000000000E+000	-9.4466617E-005	6.0158122E-008
2	0	0	0	1	2.796059929365583E+002	7.8081086E-002	7.7936791E-002	-7.675941811599845E-004	2.000000000000000E+000	-9.4517731E-005	5.9823826E-008
2	0	0	1	1	2.796725929348759E+002	7.4749023E-002	7.4599132E-002	-7.940451759955785E-004	2.000000000000000E+000	-9.4570634E-005	5.9235081E-008
2	0	0	0	1	2.797391929331934E+002	7.1420297E-002	7.1263559E-002	-8.186504540444450E-004	2.000000000000000E+000	-9.4625233E-005	5.8339946E-008
2	0	0	0	1	2.798058929315084E+002	6.8084896E-002	6.7936815E-002	-8.427388024889061E-004	2.000000000000000E+000	-9.4681534E-005	5.7252990E-008
2	0	0	1	1	2.798725929298234E+002	6.4749509E-002	6.4613767E-002	-8.653592711065782E-004	2.000000000000000E+000	-9.4739407E-005	5.5914121E-008
2	0	0	0	1	2.799391929281410E+002	6.1420780E-002	6.1295062E-002	-8.878037932040612E-004	2.000000000000000E+000	-9.4798677E-005	5.4417988E-008
2	0	0	1	1	2.800057929264585E+002	5.8089823E-002	5.7961971E-002	-9.087274722659471E-004	2.000000000000000E+000	-9.4859395E-005	5.2671634E-008
2	0	0	0	1	2.800723929247761E+002	5.4759979E-002	5.4617412E-002	-9.300382634060047E-004	2.000000000000000E+000	-9.4921525E-005	5.0796285E-008
2	0	0	0	1	2.801390929230911E+002	5.1425703E-002	5.1290177E-002	-9.494605343346920E-004	2.000000000000000E+000	-9.4985095E-005	4.8697999E-008
2	0	0	1	1	2.802057929214061E+002	4.8089195E-002	4.7944155E-002	-9.682866445325498E-004	2.000000000000000E+000	-9.5049960E-005	4.6423686E-008
2	0	0	0	1	2.802889929193043E+002	4.3930311E-002	4.3794211E-002	-9.900070393778840E-004	2.000000000000000E+000	-9.5133102E-005	4.3356579E-008
2	0	0	0	1	2.803723929171974E+002	3.9759044E-002	3.9617926E-002	-1.009779964534970E-003	2.000000000000000E+000	-9.5217940E-005	4.0005389E-008
2	0	0	1	1	2.804389929155150E+002	3.6430314E-002	3.6309797E-002	-1.027175980289237E-003	2.000000000000000E+000	-9.5286821E-005	3.7296552E-008
2	0	0	0	1	2.805055929138325E+002	3.3100475E-002	3.2966472E-002	-1.044901887128228E-003	2.000000000000000E+000	-9.5356896E-005	3.4446728E-008
2	0	0	1	1	2.805721929121501E+002	2.9769521E-002	2.9649723E-002	-1.061783463504877E-003	2.000000000000000E+000	-9.5428113E-005	3.1481587E-008
2	0	0	1	1	2.806389929104625E+002	2.6430799E-002	2.6296267E-002	-1.078043383385071E-003	2.000000000000000E+000	-9.5500640E-005	2.8348516E-008
2	0	0	0	1	2.807055929087801E+002	2.3098735E-002	2.2972433E-002	-1.094070154014495E-003	2.000000000000000E+000	-9.5574025E-005	2.5133453E-008
2	0	0	1	1	2.807721929070976E+002	1.9770006E-002	1.9645097E-002	-1.109829468254147E-003	2.000000000000000E+000	-9.5648473E-005	2.1802707E-008
2	0	0	0	1	2.808387929054152E+002	1.6441276E-002	1.6327221E-002	-1.125030359925804E-003	2.000000000000000E+000	-9.5723946E-005	1.8368619E-008
2	0	0	1	1	2.809053929037327E+002	1.3109214E-002	1.2992753E-002	-1.140698103769108E-003	2.000000000000000E+000	-9.5800460E-005	1.4820809E-008
2	0	0	1	1	2.809721929020452E+002	9.7704893E-003	9.6347770E-003	-1.155480137957505E-003	2.000000000000000E+000	-9.5878211E-005	1.1132793E-008
2	0	0	0	1	2.810387929003628E+002	6.4395382E-003	6.3003669E-003	-1.169979734243893E-003	2.000000000000000E+000	-9.5956711E-005	7.3713018E-009
2	0	0	1	1	2.811053928986803E+002	3.1096982E-003	2.9941355E-003	-1.184687101441359E-003	2.000000000000000E+000	-9.6036172E-005	3.5471137E-009
2	0	0	0	1	2.811719928969978E+002	-2.1903163E-004	-3.7913365E-004	-1.198751384912228E-003	2.000000000000000E+000	-9.6116622E-005	4.5448698E-010
2	0	0	1	1	2.812385928953154E+002	-3.5510948E-003	-3.7178362E-003	-1.212101979384223E-003	2.000000000000000E+000	-9.6197960E-005	4.5063966E-009
2	0	0	1	1	2.813053928936279E+002	-6.8898224E-003	-7.0429188E-003	-1.225921098837456E-003	2.000000000000000E+000	-9.6280441E-005	8.6340624E-009
2	0	0	0	1	2.813719928919454E+002	-1.0219662E-002	-1.0383676E-002	-1.239417460059095E-003	2.000000000000000E+000	-9.6363590E-005	1.2869709E-008
2	0	0	1	1	2.814385928902630E+002	-1.3550617E-002	-1.3734861E-002	-1.252448524867329E-003	2.000000000000000E+000	-9.6447620E-005	1.7202206E-008
2	0	0	0	1	2.815051928885805E+002	-1.6879346E-002	-1.7039429E-002	-1.265489109412956E-003	2.000000000000000E+000	-9.6532509E-005	2.1563212E-008
2	0	0	0	1	2.815718928868955E+002	-2.0215856E-002	-2.0373534E-002	-1.277926307845123E-003	2.000000000000000E+000	-9.6618387E-005	2.6035876E-008
2	0	0	1	1	2.816385928852105E+002	-2.3550138E-002	-2.3704624E-002	-1.290496146937888E-003	2.000000000000000E+000	-9.6705095E-005	3.0590726E-008
2	0	0	0	1	2.817051928835281E+002	-2.6878869E-002	-2.7012983E-002	-1.302675898518166E-003	2.000000000000000E+000	-9.6792493E-005	3.5189164E-008
2	0	0	1	1	2.817717928818456E+002	-3.0210931E-002	-3.0359831E-002	-1.315378402653992E-003	2.000000000000000E+000	-9.6880729E-005	3.9934665E-008
2	0	0	0	1	2.818383928801632E+002	-3.3539664E-002	-3.3686038E-002	-1.327377007661213E-003	2.000000000000000E+000	-9.6969779E-005	4.4714074E-008
2	0	0	0	1	2.819050928784782E+002	-3.6875054E-002	-3.7012689E-002	-1.339070877889714E-003	2.000000000000000E+000	-9.7059768E-005	4.9562615E-008
2	0	0	1	1	2.819717928767932E+002	-4.0210452E-002	-4.0370688E-002	-1.351933139324192E-003	2.000000000000000E+000	-9.7150572E-005	5.4578472E-008
2	0	0	0	1	2.820383928751107E+002	-4.3539185E-002	-4.3724813E-002	-1.363602644249309E-003	2.000000000000000E+000	-9.7242038E-005	5.9623268E-008
2	0	0	1	1	2.821049928734283E+002	-4.6871249E-002	-4.7061790E-002	-1.374872428959369E-003	2.000000000000000E+000	-9.7334276E-005	6.4703954E-008
2	0	0	0	1	2.821715928717458E+002	-5.0199978E-002	-5.0376862E-002	-1.386468819611745E-003	2.000000000000000E+000	-9.7427277E-005	6.9845946E-008
2	0	0	0	1	2.822382928700608E+002	-5.3534254E-002	-5.3722858E-002	-1.397684508336688E-003	2.000000000000000E+000	-9.7521188E-005	7.5087605E-008
2	0	0	1	1	2.823049928683758E+002	-5.6870770E-002	-5.7049554E-002	-1.408644497614839E-003	2.000000000000000E+000	-9.7615826E-005	8.0362540E-008
2	0	0	0	1	2.823715928666934E+002	-6.0199503E-002	-6.0377654E-002	-1.419529626334584E-003	2.000000000000000E+000	-9.7711054E-005	8.5707867E-008
2	0	0	1	1	2.824381928650109E+002	-6.3530453E-002	-6.3703984E-002	-1.430126391076038E-003	2.000000000000000E+000	-9.7806995E-005	9.1104752E-008
2	0	0	0	1	2.825047928633285E+002	-6.6860296E-002	-6.7031205E-002	-1.441234518465664E-003	2.000000000000000E+000	-9.7903663E-005	9.6607685E-008
2	0	0	0	1	2.825715928616410E+002	-7.0199020E-002	-7.0345677E-002	-1.451927793545058E-003	2.000000000000000E+000	-9.8001343E-005	1.0213684E-007
2	0	0	1	1	2.826381928599585E+002	-7.3531076E-002	-7.3710568E-002	-1.463266347160319E-003	2.000000000000000E+000	-9.8099474E-005	1.0785819E-007
2	0	0	0	1	2.827047928582761E+002	-7.6859817E-002	-7.7040680E-002	-1.473798395518056E-003	2.000000000000000E+000	-9.8198318E-005	1.1354243E-007
2	0	0	1	1	2.827713928565936E+002	-8.0189653E-002	-8.0362290E-002	-1.483957413622830E-003	2.000000000000000E+000	-9.8297853E-005	1.1925421E-007
2	0	0	0	1	2.828379928549111E+002	-8.3520606E-002	-8.3699234E-002	-1.494072154725465E-003	2.000000000000000E+000	-9.8398072E-005	1.2505269E-007
2	0	0	0	1	2.829047928532236E+002	-8.6859338E-002	-8.7008171E-002	-1.504121617082157E-003	2.000000000000000E+000	-9.8499258E-005	1.3087087E-007
2	0	0	1	1	2.829713928515412E+002	-9.0190284E-002	-9.0328529E-002	-1.514830061188152E-003	2.000000000000000E+000	-9.8600853E-005	1.3683237E-007
2	0	0	0	1	2.830379928498587E+002	-9.3520127E-002	-9.3660310E-002	-1.525452485739096E-003	2.000000000000000E+000	-9.8703145E-005	1.4287436E-007
2	0	0	1	1	2.831045928481763E+002	-9.6848860E-002	-9.7002245E-002	-1.535713276065585E-003	2.000000000000000E+000	-9.8806129E-005	1.4896763E-007
2	0	0	0	1	2.831711928464938E+002	-1.0018092E-001	-1.0034171E-001	-1.545762936908661E-003	2.000000000000000E+000	-9.8909804E-005	1.5510449E-007
2	0	0	0	1	2.832379928448063E+002	-1.0351965E-001	-1.0366309E-001	-1.556558969720168E-003	2.000000000000000E+000	-9.9014484E-005	1.6135770E-007
2	0	0	1	1	2.833045928431238E+002	-1.0685059E-001	-1.0700952E-001	-1.566309658263449E-003	2.000000000000000E+000	-9.9119512E-005	1.6761005E-007
2	0	0	0	1	2.833711928414414E+002	-1.1018044E-001	-1.1034372E-001	-1.576162990716395E-003	2.000000000000000E+000	-9.9225203E-005	1.7391970E-007
2	0	0	1	1	2.834377928397589E+002	-1.1350917E-001	-1.1366943E-001	-1.586291110132119E-003	2.000000000000000E+000	-9.9331570E-005	1.8031280E-007
2	0	0	1	1	2.835044928380739E+002	-1.1684568E-001	-1.1700506E-001	-1.596404725608331E-003	2.000000000000000E+000	-9.9438759E-005	1.8678743E-007
2	0	0	0	1	2.835711928363889E+002	-1.2017997E-001	-1.2033764E-001	-1.606406484272769E-003	2.000000000000000E+000	-9.9546633E-005	1.9331115E-007
2	0	0	1	1	2.836377928347065E+002	-1.2350980E-001	-1.2365219E-001	-1.616814227896710E-003	2.000000000000000E+000	-9.9655001E-005	1.9992262E-007
2	0	0	0	1	2.837043928330240E+002	-1.2684076E-001	-1.2701282E-001	-1.627315401890877E-003	2.000000000000000E+000	-9.9764082E-005	2.0668992E-007
2	0	0	1	1	2.837709928313416E+002	-1.3016950E-001	-1.3035116E-001	-1.636917426862023E-003	2.000000000000000E+000	-9.9873825E-005	2.1337408E-007
2	0	0	1	1	2.838376928296566E+002	-1.3350488E-001	-1.3367915E-001	-1.646769754847385E-003	2.000000000000000E+000	-9.9984361E-005	2.2013879E-007
2	0	0	0	1	2.839043928279716E+002	-1.3684028E-001	-1.3701651E-001	-1.657028538026873E-003	2.000000000000000E+000	-1.0009558E-004	2.2704026E-007
2	0	0	1	1	2.839709928262891E+002	-1.4016902E-001	-1.4036186E-001	-1.667210275761871E-003	2.000000000000000E+000	-1.0020732E-004	2.3401273E-007
2	0	0	0	1	2.840375928246067E+002	-1.4350107E-001	-1.4368272E-001	-1.676800058891205E-003	2.000000000000000E+000	-1.0031971E-004	2.4092719E-007
2	0	0	1	1	2.841041928229242E+002	-1.4682980E-001	-1.4702445E-001	-1.687732898581666E-003	2.000000000000000E+000	-1.0043280E-004	2.4813801E-007
2	0	0	1	1	2.841708928212392E+002	-1.5016522E-001	-1.5033638E-001	-1.697897625670918E-003	2.000000000000000E+000	-1.0054674E-004	2.5525580E-007
2	0	0	0	1	2.842375928195543E+002	-1.5350060E-001	-1.5366340E-001	-1.707577483774904E-003	2.000000000000000E+000	-1.0066137E-004	2.6239215E-007
2	0	0	1	1	2.843041928178718E+002	-1.5682933E-001	-1.5699740E-001	-1.718361852512246E-003	2.000000000000000E+000	-1.0077650E-004	2.6977833E-007
2	0	0	0	1	2.843707928161894E+002	-1.6016029E-001	-1.6033399E-001	-1.729172353536465E-003	2.000000000000000E+000	-1.0089238E-004	2.7724511E-007
2	0	0	1	1	2.844373928145069E+002	-1.6349013E-001	-1.6367909E-001	-1.740151582110955E-003	2.000000000000000E+000	-1.0100897E-004	2.8482643E-007
2	0	0	1	1	2.845040928128219E+002	-1.6682440E-001	-1.6701832E-001	-1.751460307296192E-003	2.000000000000000E+000	-1.0112647E-004	2.9252595E-007
2	0	0	0	1	2.845707928111369E+002	-1.7016093E-001	-1.7036606E-001	-1.762548479237014E-003	2.000000000000000E+000	-1.0124472E-004	3.0027846E-007
2	0	0	1	1	2.846373928094545E+002	-1.7348966E-001	-1.7368791E-001	-1.773636812828903E-003	2.000000000000000E+000	-1.0136353E-004	3.0805927E-007
2	0	0	0	1	2.847039928077720E+002	-1.7681950E-001	-1.7701928E-001	-1.785530528200078E-003	2.000000000000000E+000	-1.0148311E-004	3.1607334E-007
2	0	0	1	1	2.847705928060896E+002	-1.8015043E-001	-1.8034996E-001	-1.798335840869116E-003	2.000000000000000E+000	-1.0160350E-004	3.2432979E-007
2	0	0	1	1	2.848373928044020E+002	-1.8348916E-001	-1.8369034E-001	-1.810989756358454E-003	2.000000000000000E+000	-1.0172511E-004	3.3266133E-007
2	0	0	0	1	2.849039928027196E+002	-1.8682124E-001	-1.8700659E-001	-1.823626656374481E-003	2.000000000000000E+000	-1.0184718E-004	3.4103022E-007
2	0	0	1	1	2.849705928010371E+002	-1.9014995E-001	-1.9033726E-001	-1.837167619693596E-003	2.000000000000000E+000	-1.0197014E-004	3.4968144E-007
2	0	0	0	1	2.850371927993547E+002	-1.9347981E-001	-1.9366002E-001	-1.851376542898544E-003	2.000000000000000E+000	-1.0209402E-004	3.5853762E-007
2	0	0	1	1	2.851037927976722E+002	-1.9681077E-001	-1.9698569E-001	-1.866127131762488E-003	2.000000000000000E+000	-1.0221887E-004	3.6760034E-007
2	0	0	1	1	2.851705927959847E+002	-2.0014951E-001	-2.0033062E-001	-1.882415282992305E-003	2.000000000000000E+000	-1.0234513E-004	3.7710541E-007
2	0	0	0	1	2.852371927943022E+002	-2.0348042E-001	-2.0365565E-001	-1.898750732546466E-003	2.000000000000000E+000	-1.0247210E-004	3.8669131E-007
2	0	0	1	1	2.853037927926198E+002	-2.0681027E-001	-2.0699334E-001	-1.915839270759511E-003	2.000000000000000E+000	-1.0260018E-004	3.9656598E-007
2	0	0	0	1	2.853703927909373E+002	-2.1013899E-001	-2.1031792E-001	-1.935049624934352E-003	2.000000000000000E+000	-1.0272947E-004	4.0697563E-007
2	0	0	1	1	2.854369927892549E+002	-2.1347108E-001	-2.1367881E-001	-1.955270289686697E-003	2.000000000000000E+000	-1.0286010E-004	4.1779981E-007
2	0	0	1	1	2.855037927875674E+002	-2.1680979E-001	-2.1700458E-001	-1.975740739893862E-003	2.000000000000000E+000	-1.0299245E-004	4.2874478E-007
2	0	0	0	1	2.855703927858849E+002	-2.2013964E-001	-2.2031909E-001	-1.998280868240515E-003	2.000000000000000E+000	-1.0312587E-004	4.4025941E-007
2	0	0	1	1	2.856369927842024E+002	-2.2347060E-001	-2.2367994E-001	-2.022430500743723E-003	2.000000000000000E+000	-1.0326083E-004	4.5237715E-007
2	0	0	0	1	2.857035927825200E+002	-2.2679932E-001	-2.2701143E-001	-2.047498861229589E-003	2.000000000000000E+000	-1.0339744E-004	4.6480565E-007
2	0	0	0	1	2.857702927808350E+002	-2.3013583E-001	-2.3034666E-001	-2.074250251524312E-003	2.000000000000000E+000	-1.0353597E-004	4.7779662E-007
2	0	0	1	1	2.858369927791500E+002	-2.3347011E-001	-2.3368682E-001	-2.103178646344281E-003	2.000000000000000E+000	-1.0367636E-004	4.9148514E-007
2	0	0	0	1	2.859035927774676E+002	-2.3679887E-001	-2.3699538E-001	-2.133704353600607E-003	2.000000000000000E+000	-1.0381852E-004	5.0567809E-007
2	0	0	1	1	2.859701927757851E+002	-2.4013090E-001	-2.4030973E-001	-2.165480290012427E-003	2.000000000000000E+000	-1.0396277E-004	5.2038598E-007
2	0	0	0	1	2.860367927741027E+002	-2.4345963E-001	-2.4365568E-001	-2.199716891175190E-003	2.000000000000000E+000	-1.0410922E-004	5.3597353E-007
2	0	0	0	1	2.861034927724177E+002	-2.4679501E-001	-2.4700181E-001	-2.234956375686797E-003	2.000000000000000E+000	-1.0425821E-004	5.5203827E-007
2	0	0	1	1	2.861701927707327E+002	-2.5013044E-001	-2.5032681E-001	-2.271439544653482E-003	2.000000000000000E+000	-1.0440958E-004	5.6860222E-007
2	0	0	0	1	2.862367927690502E+002	-2.5345916E-001	-2.5366604E-001	-2.309486561571893E-003	2.000000000000000E+000	-1.0456322E-004	5.8583834E-007
2	0	0	1	1	2.863033927673678E+002	-2.5679123E-001	-2.5696871E-001	-2.348538348911598E-003	2.000000000000000E+000	-1.0471943E-004	6.0350084E-007
2	0	0	0	1	2.863699927656853E+002	-2.6011994E-001	-2.6029259E-001	-2.389940498462383E-003	2.000000000000000E+000	-1.0487832E-004	6.2208380E-007
2	0	0	0	1	2.864366927640003E+002	-2.6345420E-001	-2.6363641E-001	-2.431932460038415E-003	2.000000000000000E+000	-1.0504023E-004	6.4114596E-007
2	0	0	1	1	2.865033927623153E+002	-2.6679075E-001	-2.6698518E-001	-2.476167614530350E-003	2.000000000000000E+000	-1.0520504E-004	6.6110005E-007
2	0	0	0	1	2.865699927606329E+002	-2.7011949E-001	-2.7030611E-001	-2.520223448763112E-003	2.000000000000000E+000	-1.0537253E-004	6.8123182E-007
2	0	0	1	1	2.866365927589504E+002	-2.7345043E-001	-2.7363262E-001	-2.566430472617866E-003	2.000000000000000E+000	-1.0554303E-004	7.0225906E-007
2	0	0	0	1	2.867031927572680E+002	-2.7678025E-001	-2.7693915E-001	-2.611704764546287E-003	2.000000000000000E+000	-1.0571659E-004	7.2328334E-007
2	0	0	0	1	2.867699927555805E+002	-2.8011900E-001	-2.8028864E-001	-2.660384045017949E-003	2.000000000000000E+000	-1.0589380E-004	7.4567544E-007
2	0	0	1	1	2.868365927538980E+002	-2.8345108E-001	-2.8360608E-001	-2.708640977250987E-003	2.000000000000000E+000	-1.0607368E-004	7.6818708E-007
2	0	0	0	1	2.869031927522155E+002	-2.8677976E-001	-2.8694052E-001	-2.758726707031237E-003	2.000000000000000E+000	-1.0625686E-004	7.9159048E-007
2	0	0	1	1	2.869697927505331E+002	-2.9010963E-001	-2.9029411E-001	-2.808852576113169E-003	2.000000000000000E+000	-1.0644337E-004	8.1539338E-007
2	0	0	0	1	2.870363927488506E+002	-2.9344061E-001	-2.9362056E-001	-2.858356366562764E-003	2.000000000000000E+000	-1.0663321E-004	8.3927216E-007
2	0	0	0	1	2.871031927471631E+002	-2.9677936E-001	-2.9696074E-001	-2.910926597356034E-003	2.000000000000000E+000	-1.0682703E-004	8.6443094E-007
2	0	0	1	1	2.871697927454807E+002	-3.0011138E-001	-3.0031207E-001	-2.962592990575911E-003	2.000000000000000E+000	-1.0702375E-004	8.8970245E-007
2	0	0	0	1	2.872363927437982E+002	-3.0344012E-001	-3.0364886E-001	-3.014448447721918E-003	2.000000000000000E+000	-1.0722390E-004	9.1533383E-007
2	0	0	1	1	2.873029927421157E+002	-3.0676880E-001	-3.0696470E-001	-3.067723500712835E-003	2.000000000000000E+000	-1.0742756E-004	9.4168280E-007
2	0	0	0	1	2.873695927404333E+002	-3.1010091E-001	-3.1030720E-001	-3.120300920097081E-003	2.000000000000000E+000	-1.0763475E-004	9.6825181E-007
2	0	0	0	1	2.874363927387458E+002	-3.1343964E-001	-3.1365335E-001	-3.174117983432419E-003	2.000000000000000E+000	-1.0784612E-004	9.9557269E-007
2	0	0	1	1	2.875029927370633E+002	-3.1677061E-001	-3.1697980E-001	-3.228501259476213E-003	2.000000000000000E+000	-1.0806044E-004	1.0233697E-006
2	0	0	0	1	2.875695927353809E+002	-3.2010043E-001	-3.2029340E-001	-3.281382144718424E-003	2.000000000000000E+000	-1.0827833E-004	1.0510050E-006
2	0	0	1	1	2.876361927336984E+002	-3.2342920E-001	-3.2362455E-001	-3.335892832474034E-003	2.000000000000000E+000	-1.0849981E-004	1.0795768E-006
2	0	0	1	1	2.877028927320134E+002	-3.2676563E-001	-3.2694584E-001	-3.390510073513198E-003	2.000000000000000E+000	-1.0872525E-004	1.1085132E-006
2	0	0	0	1	2.877695927303284E+002	-3.3009994E-001	-3.3030531E-001	-3.445312358479037E-003	2.000000000000000E+000	-1.0895435E-004	1.1380049E-006
2	0	0	1	1	2.878361927286460E+002	-3.3342978E-001	-3.3365574E-001	-3.499751081669916E-003	2.000000000000000E+000	-1.0918675E-004	1.1677121E-006
2	0	0	0	1	2.879027927269635E+002	-3.3676070E-001	-3.3696267E-001	-3.554366742143005E-003	2.000000000000000E+000	-1.0942277E-004	1.1976889E-006
2	0	0	1	1	2.879693927252811E+002	-3.4008947E-001	-3.4033918E-001	-3.610749657581652E-003	2.000000000000000E+000	-1.0966251E-004	1.2288796E-006
2	0	0	1	1	2.880360927235961E+002	-3.4342596E-001	-3.4368300E-001	-3.665042012960786E-003	2.000000000000000E+000	-1.0990628E-004	1.2596126E-006
2	0	0	0	1	2.881027927219111E+002	-3.4676027E-001	-3.4700692E-001	-3.719615230986021E-003	2.000000000000000E+000	-1.1015370E-004	1.2907323E-006
2	0	0	1	1	2.881693927202286E+002	-3.5008901E-001	-3.5032198E-001	-3.776104860506758E-003	2.000000000000000E+000	-1.1040444E-004	1.3228525E-006
2	0	0	0	1	2.882359927185462E+002	-3.5342106E-001	-3.5366026E-001	-3.831108680444131E-003	2.000000000000000E+000	-1.1065889E-004	1.3549109E-006
2	0	0	1	1	2.883025927168637E+002	-3.5674980E-001	-3.5698208E-001	-3.886808006548219E-003	2.000000000000000E+000	-1.1091703E-004	1.3875208E-006
2	0	0	1	1	2.883692927151787E+002	-3.6008516E-001	-3.6033568E-001	-3.942633548067023E-003	2.000000000000000E+000	-1.1117927E-004	1.4206715E-006
2	0	0	0	1	2.884359927134938E+002	-3.6342058E-001	-3.6363882E-001	-3.998164532202439E-003	2.000000000000000E+000	-1.1144522E-004	1.4538879E-006
2	0	0	1	1	2.885025927118113E+002	-3.6674929E-001	-3.6696556E-001	-4.055014808770924E-003	2.000000000000000E+000	-1.1171451E-004	1.4880508E-006
2	0	0	0	1	2.885691927101288E+002	-3.7008026E-001	-3.7028641E-001	-4.111150709060884E-003	2.000000000000000E+000	-1.1198757E-004	1.5223033E-006
2	0	0	1	1	2.886357927084464E+002	-3.7341011E-001	-3.7364542E-001	-4.168130355830177E-003	2.000000000000000E+000	-1.1226441E-004	1.5574028E-006
2	0	0	1	1	2.887024927067614E+002	-3.7674436E-001	-3.7697867E-001	-4.224683756682876E-003	2.000000000000000E+000	-1.1254544E-004	1.5926156E-006
2	0	0	0	1	2.887691927050764E+002	-3.8008085E-001	-3.8031626E-001	-4.281730431561669E-003	2.000000000000000E+000	-1.1283025E-004	1.6284117E-006
2	0	0	1	1	2.888357927033940E+002	-3.8340959E-001	-3.8366500E-001	-4.340438357179219E-003	2.000000000000000E+000	-1.1311852E-004	1.6652742E-006
2	0	0	0	1	2.889023927017115E+002	-3.8673946E-001	-3.8699427E-001	-4.398283094138489E-003	2.000000000000000E+000	-1.1341066E-004	1.7021104E-006
2	0	0	1	1	2.889689927000290E+002	-3.9007041E-001	-3.9032114E-001	-4.455956028225794E-003	2.000000000000000E+000	-1.1370664E-004	1.7392538E-006
2	0	0	1	1	2.890357926983415E+002	-3.9340913E-001	-3.9367270E-001	-4.516234356074428E-003	2.000000000000000E+000	-1.1400746E-004	1.7779182E-006
2	0	0	0	1	2.891023926966591E+002	-3.9674124E-001	-3.9699385E-001	-4.575721228425284E-003	2.000000000000000E+000	-1.1431137E-004	1.8165332E-006
2	0	0	1	1	2.891689926949766E+002	-4.0006995E-001	-4.0032303E-001	-4.635282531808990E-003	2.000000000000000E+000	-1.1461923E-004	1.8556103E-006
2	0	0	0	1	2.892355926932942E+002	-4.0339977E-001	-4.0363434E-001	-4.694734137194088E-003	2.000000000000000E+000	-1.1493106E-004	1.8949559E-006
2	0	0	1	1	2.893021926916117E+002	-4.0673071E-001	-4.0696967E-001	-4.755773376201700E-003	2.000000000000000E+000	-1.1524690E-004	1.9354554E-006
2	0	0	1	1	2.893689926899242E+002	-4.1006944E-001	-4.1030425E-001	-4.816782044119089E-003	2.000000000000000E+000	-1.1556775E-004	1.9763461E-006
2	0	0	0	1	2.894355926882417E+002	-4.1340041E-001	-4.1363570E-001	-4.879075362320295E-003	2.000000000000000E+000	-1.1589177E-004	2.0181596E-006
2	0	0	1	1	2.895021926865593E+002	-4.1673025E-001	-4.1698733E-001	-4.941923522165586E-003	2.000000000000000E+000	-1.1621994E-004	2.0607195E-006
2	0	0	0	1	2.895687926848768E+002	-4.2005900E-001	-4.2030802E-001	-5.004928314910354E-003	2.000000000000000E+000	-1.1655231E-004	2.1036115E-006
2	0	0	1	1	2.896353926831944E+002	-4.2339104E-001	-4.2365292E-001	-5.069062943786652E-003	2.000000000000000E+000	-1.1688892E-004	2.1475232E-006
2	0	0	1	1	2.897021926815069E+002	-4.2672980E-001	-4.2696691E-001	-5.131493923483874E-003	2.000000000000000E+000	-1.1723077E-004	2.1909782E-006
2	0	0	0	1	2.897687926798244E+002	-4.3005961E-001	-4.3029568E-001	-5.196565174263548E-003	2.000000000000000E+000	-1.1757584E-004	2.2360596E-006
2	0	0	1	1	2.898353926781419E+002	-4.3339059E-001	-4.3361583E-001	-5.261371864269325E-003	2.000000000000000E+000	-1.1792524E-004	2.2814143E-006
2	0	0	0	1	2.899019926764595E+002	-4.3671930E-001	-4.3695113E-001	-5.329461685405407E-003	2.000000000000000E+000	-1.1827907E-004	2.3287143E-006
2	0	0	0	1	2.899686926747745E+002	-4.4005579E-001	-4.4028729E-001	-5.394637199847965E-003	2.000000000000000E+000	-1.1863783E-004	2.3751902E-006
2	0	0	1	1	2.900353926730895E+002	-4.4339013E-001	-4.4360322E-001	-5.461786076798605E-003	2.000000000000000E+000	-1.1900103E-004	2.4228659E-006
2	0	0	0	1	2.901019926714071E+002	-4.4671994E-001	-4.4694418E-001	-5.528883901791196E-003	2.000000000000000E+000	-1.1936820E-004	2.4711026E-006
2	0	0	1	1	2.901685926697246E+002	-4.5005089E-001	-4.5026118E-001	-5.598470011320446E-003	2.000000000000000E+000	-1.1973990E-004	2.5207737E-006
2	0	0	0	1	2.902351926680421E+002	-4.5337960E-001	-4.5359445E-001	-5.668003982805328E-003	2.000000000000000E+000	-1.2011622E-004	2.5709751E-006
2	0	0	0	1	2.903018926663572E+002	-4.5671499E-001	-4.5694408E-001	-5.739488448230939E-003	2.000000000000000E+000	-1.2049780E-004	2.6226253E-006
2	0	0	1	1	2.903685926646722E+002	-4.6005040E-001	-4.6026751E-001	-5.810757691644533E-003	2.000000000000000E+000	-1.2088414E-004	2.6745031E-006
2	0	0	0	1	2.904351926629897E+002	-4.6337914E-001	-4.6361065E-001	-5.883225342097752E-003	2.000000000000000E+000	-1.2127470E-004	2.7275260E-006
2	0	0	1	1	2.905017926613073E+002	-4.6671119E-001	-4.6693876E-001	-5.957157125088874E-003	2.000000000000000E+000	-1.2167016E-004	2.7816275E-006
2	0	0	0	1	2.905683926596248E+002	-4.7003987E-001	-4.7028729E-001	-6.030365654322772E-003	2.000000000000000E+000	-1.2207052E-004	2.8360043E-006
2	0	0	0	1	2.906350926579398E+002	-4.7337416E-001	-4.7361222E-001	-6.104953926861986E-003	2.000000000000000E+000	-1.2247640E-004	2.8913807E-006
2	0	0	1	1	2.907017926562548E+002	-4.7671071E-001	-4.7695607E-001	-6.180843184553697E-003	2.000000000000000E+000	-1.2288729E-004	2.9479907E-006
2	0	0	0	1	2.907683926545724E+002	-4.8003945E-001	-4.8029312E-001	-6.257042465860244E-003	2.000000000000000E+000	-1.2330264E-004	3.0052145E-006
2	0	0	1	1	2.908349926528899E+002	-4.8337039E-001	-4.8362222E-001	-6.331017799661540E-003	2.000000000000000E+000	-1.2372297E-004	3.0618210E-006
2	0	0	0	1	2.909015926512075E+002	-4.8670027E-001	-4.8695776E-001	-6.406392287970783E-003	2.000000000000000E+000	-1.2414828E-004	3.1196425E-006
2	0	0	0	1	2.909682926495225E+002	-4.9003449E-001	-4.9026653E-001	-6.483043061722812E-003	2.000000000000000E+000	-1.2457931E-004	3.1784191E-006
2	0	0	1	1	2.910349926478375E+002	-4.9337104E-001	-4.9360445E-001	-6.561490999715924E-003	2.000000000000000E+000	-1.2501550E-004	3.2387811E-006
2	0	0	0	1	2.911015926461550E+002	-4.9669975E-001	-4.9692306E-001	-6.638242525102089E-003	2.000000000000000E+000	-1.2545619E-004	3.2986957E-006
2	0	0	1	1	2.911681926444726E+002	-5.0002962E-001	-5.0026810E-001	-6.716257797703511E-003	2.000000000000000E+000	-1.2590208E-004	3.3599295E-006
2	0	0	0	1	2.912347926427901E+002	-5.0336057E-001	-5.0359505E-001	-6.794984840063453E-003	2.000000000000000E+000	-1.2635319E-004	3.4219208E-006
2	0	0	0	1	2.913015926411026E+002	-5.0669926E-001	-5.0693142E-001	-6.875235330640508E-003	2.000000000000000E+000	-1.2681095E-004	3.4852728E-006
2	0	0	1	1	2.913681926394202E+002	-5.1003134E-001	-5.1027876E-001	-6.955103847280736E-003	2.000000000000000E+000	-1.2727265E-004	3.5490418E-006
2	0	0	0	1	2.914347926377377E+002	-5.1336008E-001	-5.1359898E-001	-7.034693062890077E-003	2.000000000000000E+000	-1.2773970E-004	3.6130111E-006
2	0	0	1	1	2.915013926360552E+002	-5.1668882E-001	-5.1692665E-001	-7.114609544962958E-003	2.000000000000000E+000	-1.2821205E-004	3.6777312E-006
2	0	0	0	1	2.915679926343728E+002	-5.2002090E-001	-5.2025777E-001	-7.198931261079018E-003	2.000000000000000E+000	-1.2868989E-004	3.7452999E-006
2	0	0	0	1	2.916347926326853E+002	-5.2335966E-001	-5.2359802E-001	-7.281190576247376E-003	2.000000000000000E+000	-1.2917472E-004	3.8124169E-006
2	0	0	1	1	2.917013926310028E+002	-5.2669054E-001	-5.2693349E-001	-7.361180403169340E-003	2.000000000000000E+000	-1.2966347E-004	3.8788526E-006
2	0	0	0	1	2.917679926293204E+002	-5.3002042E-001	-5.3025413E-001	-7.442511757727949E-003	2.000000000000000E+000	-1.3015761E-004	3.9464226E-006
2	0	0	1	1	2.918345926276379E+002	-5.3334916E-001	-5.3357309E-001	-7.525469261430336E-003	2.000000000000000E+000	-1.3065719E-004	4.0153877E-006
2	0	0	1	1	2.919012926259529E+002	-5.3668565E-001	-5.3690922E-001	-7.611020870988028E-003	2.000000000000000E+000	-1.3116315E-004	4.0864275E-006
2	0	0	0	1	2.919679926242679E+002	-5.4001987E-001	-5.4022753E-001	-7.694844840662449E-003	2.000000000000000E+000	-1.3167478E-004	4.1569670E-006
2	0	0	1	1	2.920345926225855E+002	-5.4334980E-001	-5.4356593E-001	-7.779283675683230E-003	2.000000000000000E+000	-1.3219123E-004	4.2285537E-006
2	0	0	0	1	2.921011926209030E+002	-5.4668069E-001	-5.4690897E-001	-7.864672497022232E-003	2.000000000000000E+000	-1.3271335E-004	4.3012601E-006
2	0	0	1	1	2.921677926192206E+002	-5.5000943E-001	-5.5023211E-001	-7.950142143854866E-003	2.000000000000000E+000	-1.3324116E-004	4.3744235E-006
2	0	0	1	1	2.922344926175356E+002	-5.5334592E-001	-5.5360198E-001	-8.039138350858621E-003	2.000000000000000E+000	-1.3377557E-004	4.4504827E-006
2	0	0	0	1	2.923011926158506E+002	-5.5668026E-001	-5.5691940E-001	-8.126979802968129E-003	2.000000000000000E+000	-1.3431588E-004	4.5260726E-006
2	0	0	1	1	2.923677926141681E+002	-5.6000894E-001	-5.6023407E-001	-8.213112586902493E-003	2.000000000000000E+000	-1.3486117E-004	4.6012656E-006
2	0	0	0	1	2.924343926124857E+002	-5.6334102E-001	-5.6357980E-001	-8.302125582981434E-003	2.000000000000000E+000	-1.3541231E-004	4.6789100E-006
2	0	0	1	1	2.925009926108032E+002	-5.6666976E-001	-5.6692243E-001	-8.391942157541854E-003	2.000000000000000E+000	-1.3596940E-004	4.7575804E-006
2	0	0	1	1	2.925676926091182E+002	-5.7000506E-001	-5.7023656E-001	-8.478821646187601E-003	2.000000000000000E+000	-1.3653321E-004	4.8349343E-006
2	0	0	0	1	2.926343926074333E+002	-5.7334059E-001	-5.7358539E-001	-8.570765376658310E-003	2.000000000000000E+000	-1.3710301E-004	4.9160658E-006
2	0	0	1	1	2.927009926057508E+002	-5.7666928E-001	-5.7690853E-001	-8.660321700417001E-003	2.000000000000000E+000	-1.3767798E-004	4.9962136E-006
2	0	0	0	1	2.927675926040683E+002	-5.8000028E-001	-5.8022457E-001	-8.752538658538908E-003	2.000000000000000E+000	-1.3825901E-004	5.0784379E-006
2	0	0	1	1	2.928341926023859E+002	-5.8333009E-001	-5.8356100E-001	-8.844601394479179E-003	2.000000000000000E+000	-1.3884618E-004	5.1613642E-006
2	0	0	1	1	2.929008926007009E+002	-5.8666432E-001	-5.8689517E-001	-8.937464671131407E-003	2.000000000000000E+000	-1.3944042E-004	5.2453547E-006
2	0	0	0	1	2.929675925990159E+002	-5.9000087E-001	-5.9023708E-001	-9.031981470071337E-003	2.000000000000000E+000	-1.4004095E-004	5.3310105E-006
2	0	0	1	1	2.930341925973335E+002	-5.9332961E-001	-5.9355575E-001	-9.124487436766859E-003	2.000000000000000E+000	-1.4064678E-004	5.4158918E-006
2	0	0	0	1	2.931007925956510E+002	-5.9666049E-001	-5.9687644E-001	-9.218258338910351E-003	2.000000000000000E+000	-1.4125879E-004	5.5021615E-006
2	0	0	1	1	2.931473925944738E+002	-5.9899062E-001	-5.9922791E-001	-9.282508975159705E-003	2.000000000000000E+000	-1.4169015E-004	5.5623386E-006
2	0	0	1	1	2.931641925940494E+002	-5.9982693E-001	-6.0003507E-001	-9.307717283566802E-003	2.000000000000000E+000	-1.4184653E-004	5.5849569E-006