EC-Lab ASCII FILE
Nb header lines : 53                          

Cyclic Voltammetry

Run on channel : 1 (SN 0696)
User : 
Electrode connection : standard
Ewe ctrl range : min = -10.00 V, max = 10.00 V
Ewe,I filtering : 50 kHz
Channel : Grounded
Acquisition started on : 05/17/2017 12:53:20
Saved on :
	File : 100 uM RS 10mM PB_05_CV_C01.mpr
	Directory : \\userfs\st659\w2k\EC-Lab\Data\ITO Characterisation 17-5-17\
	Host : 144.32.136.43
Device : SP-300 (SN 0182)
Address : USB
EC-Lab for windows v10.44 (software)
Internet server v10.44 (firmware)
Command interpretor v10.44 (firmware)
Electrode material : 
Initial state : 
Electrolyte : 
Comments : 
Cable : standard
Electrode surface area : 0.001 cm²
Characteristic mass : 0.001 g
Equivalent Weight : 0.000 g/eq.
Density : 0.000 g/cm3
Ei (V)              0.000               
vs.                 Eoc                 
dE/dt               500.000             
dE/dt unit          mV/s                
E1 (V)              0.100               
vs.                 Ref                 
Step percent        50                  
N                   10                  
E range min (V)     -10.000             
E range max (V)     10.000              
I Range             Auto                
I Range min         Unset               
I Range max         Unset               
I Range init        Unset               
Bandwidth           8                   
E2 (V)              -0.600              
vs.                 Ref                 
nc cycles           2                   
Reverse Scan        1                   
Ef (V)              0.000               
vs.                 Eoc                 

mode	ox/red	error	control changes	counter inc.	time/s	control/V	Ewe/V	<I>/mA	cycle number	(Q-Qo)/C	P/W
2	1	0	0	1	4.127871895721182E+002	-5.9982693E-001	-6.0003126E-001	-1.245426386594772E-002	2.000000000000000E+000	-8.2358683E-006	7.4729478E-006
2	1	0	1	1	4.127907895720273E+002	-5.9799445E-001	-5.9821647E-001	-1.196180446956230E-002	2.000000000000000E+000	-8.2790593E-006	7.1557483E-006
2	1	0	0	1	4.127973895718605E+002	-5.9469575E-001	-5.9491891E-001	-1.133387482344306E-002	2.000000000000000E+000	-8.3556870E-006	6.7427363E-006
2	1	0	0	1	4.128041895716888E+002	-5.9129703E-001	-5.9150660E-001	-1.087312436720816E-002	2.000000000000000E+000	-8.4309813E-006	6.4315250E-006
2	1	0	1	1	4.128107895715220E+002	-5.8799827E-001	-5.8821315E-001	-1.052394655901778E-002	2.000000000000000E+000	-8.5014108E-006	6.1903238E-006
2	1	0	0	1	4.128173895713553E+002	-5.8469951E-001	-5.8490682E-001	-1.021781933729166E-002	2.000000000000000E+000	-8.5696829E-006	5.9764720E-006
2	1	0	0	1	4.128241895711835E+002	-5.8130085E-001	-5.8150053E-001	-9.928629675171850E-003	2.000000000000000E+000	-8.6380087E-006	5.7735033E-006
2	1	0	1	1	4.128307895710168E+002	-5.7800204E-001	-5.7821608E-001	-9.672182502981699E-003	2.000000000000000E+000	-8.7025401E-006	5.5926116E-006
2	1	0	0	1	4.128373895708501E+002	-5.7470334E-001	-5.7491815E-001	-9.433076973073190E-003	2.000000000000000E+000	-8.7654262E-006	5.4232473E-006
2	1	0	0	1	4.128441895706783E+002	-5.7130468E-001	-5.7152665E-001	-9.193777265560726E-003	2.000000000000000E+000	-8.8285933E-006	5.2544888E-006
2	1	0	1	1	4.128507895705116E+002	-5.6800586E-001	-5.6822139E-001	-8.978178782611708E-003	2.000000000000000E+000	-8.8883990E-006	5.1015932E-006
2	1	0	0	1	4.128573895703448E+002	-5.6470722E-001	-5.6492060E-001	-8.769482581919882E-003	2.000000000000000E+000	-8.9468103E-006	4.9540613E-006
2	1	0	0	1	4.128641895701730E+002	-5.6130844E-001	-5.6150854E-001	-8.562408519598344E-003	2.000000000000000E+000	-9.0055773E-006	4.8078655E-006
2	1	0	1	1	4.128707895700063E+002	-5.5800974E-001	-5.5822110E-001	-8.366197615638782E-003	2.000000000000000E+000	-9.0612821E-006	4.6701880E-006
2	1	0	0	1	4.128773895698396E+002	-5.5471098E-001	-5.5493087E-001	-8.179044560529286E-003	2.000000000000000E+000	-9.1157290E-006	4.5388042E-006
2	1	0	0	1	4.128841895696678E+002	-5.5131227E-001	-5.5151469E-001	-7.986126352504147E-003	2.000000000000000E+000	-9.1705369E-006	4.4044659E-006
2	1	0	1	1	4.128907895695011E+002	-5.4801351E-001	-5.4822391E-001	-7.809191045816968E-003	2.000000000000000E+000	-9.2225118E-006	4.2811853E-006
2	1	0	0	1	4.128973895693343E+002	-5.4471481E-001	-5.4492307E-001	-7.632578051319172E-003	2.000000000000000E+000	-9.2733171E-006	4.1591679E-006
2	1	0	0	1	4.129041895691626E+002	-5.4131609E-001	-5.4150742E-001	-7.456241007093939E-003	2.000000000000000E+000	-9.3244689E-006	4.0376099E-006
2	1	0	1	1	4.129107895689958E+002	-5.3801739E-001	-5.3821248E-001	-7.297079520988785E-003	2.000000000000000E+000	-9.3730123E-006	3.9273791E-006
2	1	0	0	1	4.129173895688291E+002	-5.3471863E-001	-5.3491408E-001	-7.138274604100530E-003	2.000000000000000E+000	-9.4204988E-006	3.8183634E-006
2	1	0	0	1	4.129241895686573E+002	-5.3131992E-001	-5.3153396E-001	-6.976367248353210E-003	2.000000000000000E+000	-9.4683373E-006	3.7081761E-006
2	1	0	1	1	4.129307895684906E+002	-5.2802116E-001	-5.2822477E-001	-6.824528519064191E-003	2.000000000000000E+000	-9.5137366E-006	3.6048850E-006
2	1	0	0	1	4.129373895683239E+002	-5.2472246E-001	-5.2493876E-001	-6.678846542126818E-003	2.000000000000000E+000	-9.5581545E-006	3.5059854E-006
2	1	0	0	1	4.129441895681521E+002	-5.2132374E-001	-5.2152795E-001	-6.527071979871832E-003	2.000000000000000E+000	-9.6029098E-006	3.4040504E-006
2	1	0	1	1	4.129507895679853E+002	-5.1800275E-001	-5.1819110E-001	-6.380258453524801E-003	2.000000000000000E+000	-9.6453659E-006	3.3061931E-006
2	1	0	0	1	4.129573895678186E+002	-5.1469290E-001	-5.1490080E-001	-6.243672906202841E-003	2.000000000000000E+000	-9.6868844E-006	3.2148721E-006
2	1	0	1	1	4.129639895676519E+002	-5.1139414E-001	-5.1161361E-001	-6.111387464504042E-003	2.000000000000000E+000	-9.7275151E-006	3.1266691E-006
2	1	0	1	1	4.129707895674801E+002	-5.0799543E-001	-5.0820702E-001	-5.975984224339009E-003	2.000000000000000E+000	-9.7684660E-006	3.0370372E-006
2	1	0	0	1	4.129773895673134E+002	-5.0469673E-001	-5.0490397E-001	-5.848780958694982E-003	2.000000000000000E+000	-9.8073406E-006	2.9530727E-006
2	1	0	1	1	4.129839895671466E+002	-5.0139797E-001	-5.0161391E-001	-5.720366975401708E-003	2.000000000000000E+000	-9.8453702E-006	2.8694158E-006
2	1	0	1	1	4.129907895669749E+002	-4.9799925E-001	-4.9820033E-001	-5.587833693364991E-003	2.000000000000000E+000	-9.8836672E-006	2.7838605E-006
2	1	0	0	1	4.129973895668081E+002	-4.9470049E-001	-4.9490726E-001	-5.471611601569754E-003	2.000000000000000E+000	-9.9200206E-006	2.7079402E-006
2	1	0	1	1	4.130039895666414E+002	-4.9140176E-001	-4.9160281E-001	-5.354617444269599E-003	2.000000000000000E+000	-9.9556009E-006	2.6323451E-006
2	1	0	1	1	4.130107895664696E+002	-4.8800308E-001	-4.8821086E-001	-5.235398259901547E-003	2.000000000000000E+000	-9.9914587E-006	2.5559782E-006
2	1	0	0	1	4.130173895663029E+002	-4.8470435E-001	-4.8490062E-001	-5.121083085335459E-003	2.000000000000000E+000	-1.0025498E-005	2.4832163E-006
2	1	0	1	1	4.130239895661362E+002	-4.8140556E-001	-4.8162428E-001	-5.010153286336083E-003	2.000000000000000E+000	-1.0058789E-005	2.4130115E-006
2	1	0	1	1	4.130307895659644E+002	-4.7800684E-001	-4.7820979E-001	-4.898870319084384E-003	2.000000000000000E+000	-1.0092339E-005	2.3426878E-006
2	1	0	0	1	4.130373895657976E+002	-4.7470814E-001	-4.7491452E-001	-4.793301745606462E-003	2.000000000000000E+000	-1.0124185E-005	2.2764086E-006
2	1	0	1	1	4.130439895656309E+002	-4.7140941E-001	-4.7162643E-001	-4.691055122142039E-003	2.000000000000000E+000	-1.0155335E-005	2.2124257E-006
2	1	0	1	1	4.130507895654591E+002	-4.6801066E-001	-4.6821621E-001	-4.581974886180729E-003	2.000000000000000E+000	-1.0186711E-005	2.1453550E-006
2	1	0	0	1	4.130573895652924E+002	-4.6471196E-001	-4.6489561E-001	-4.478787114688489E-003	2.000000000000000E+000	-1.0216466E-005	2.0821685E-006
2	1	0	1	1	4.130639895651257E+002	-4.6141320E-001	-4.6161306E-001	-4.380757932995026E-003	2.000000000000000E+000	-1.0245560E-005	2.0222151E-006
2	1	0	1	1	4.130707895649539E+002	-4.5801449E-001	-4.5819524E-001	-4.279855061213290E-003	2.000000000000000E+000	-1.0274870E-005	1.9610093E-006
2	1	0	0	1	4.130773895647872E+002	-4.5471576E-001	-4.5488650E-001	-4.185459036913600E-003	2.000000000000000E+000	-1.0302674E-005	1.9039088E-006
2	1	0	1	1	4.130839895646204E+002	-4.5141700E-001	-4.5159927E-001	-4.096513181260281E-003	2.000000000000000E+000	-1.0329862E-005	1.8499824E-006
2	1	0	1	1	4.130907895644486E+002	-4.4801831E-001	-4.4819885E-001	-4.001738593736565E-003	2.000000000000000E+000	-1.0357245E-005	1.7935747E-006
2	1	0	0	1	4.131126895638954E+002	-4.3707040E-001	-4.3727940E-001	-3.721849844638539E-003	2.000000000000000E+000	-1.0441836E-005	1.6274882E-006
2	1	0	0	1	4.131345895633422E+002	-4.2609337E-001	-4.2629820E-001	-3.447801505171808E-003	2.000000000000000E+000	-1.0524494E-005	1.4697915E-006
2	1	0	0	1	4.131413895631704E+002	-4.2269462E-001	-4.2290485E-001	-3.367388825608943E-003	2.000000000000000E+000	-1.0547554E-005	1.4240851E-006
2	1	0	1	1	4.131479895630036E+002	-4.1939592E-001	-4.1961691E-001	-3.290151149121817E-003	2.000000000000000E+000	-1.0569410E-005	1.3806031E-006
2	1	0	0	1	4.131545895628369E+002	-4.1609719E-001	-4.1631687E-001	-3.212741658292814E-003	2.000000000000000E+000	-1.0590751E-005	1.3375186E-006
2	1	0	0	1	4.131613895626651E+002	-4.1269845E-001	-4.1289788E-001	-3.132986516114530E-003	2.000000000000000E+000	-1.0612212E-005	1.2936035E-006
2	1	0	1	1	4.131679895624984E+002	-4.0939972E-001	-4.0958220E-001	-3.060013065502662E-003	2.000000000000000E+000	-1.0632540E-005	1.2533269E-006
2	1	0	0	1	4.131745895623317E+002	-4.0610099E-001	-4.0629661E-001	-2.987452647448652E-003	2.000000000000000E+000	-1.0652380E-005	1.2137918E-006
2	1	0	0	1	4.131813895621599E+002	-4.0270224E-001	-4.0294379E-001	-2.916903022044901E-003	2.000000000000000E+000	-1.0672336E-005	1.1753480E-006
2	1	0	1	1	4.131879895619932E+002	-3.9940354E-001	-3.9960590E-001	-2.845364511843709E-003	2.000000000000000E+000	-1.0691238E-005	1.1370245E-006
2	1	0	0	1	4.131945895618264E+002	-3.9610478E-001	-3.9634550E-001	-2.775538926622778E-003	2.000000000000000E+000	-1.0709674E-005	1.1000724E-006
2	1	0	0	1	4.132013895616547E+002	-3.9270610E-001	-3.9293310E-001	-2.703546263001046E-003	2.000000000000000E+000	-1.0728186E-005	1.0623128E-006
2	1	0	1	1	4.132079895614879E+002	-3.8940734E-001	-3.8962933E-001	-2.634981782254416E-003	2.000000000000000E+000	-1.0745692E-005	1.0266662E-006
2	1	0	0	1	4.132145895613212E+002	-3.8610861E-001	-3.8631809E-001	-2.569994093452495E-003	2.000000000000000E+000	-1.0762753E-005	9.9283523E-007
2	1	0	0	1	4.132213895611494E+002	-3.8270986E-001	-3.8292736E-001	-2.500422538014380E-003	2.000000000000000E+000	-1.0779876E-005	9.5748021E-007
2	1	0	1	1	4.132279895609827E+002	-3.7941113E-001	-3.7960774E-001	-2.434821839233336E-003	2.000000000000000E+000	-1.0796050E-005	9.2427723E-007
2	1	0	0	1	4.132345895608159E+002	-3.7611240E-001	-3.7631822E-001	-2.373026201257742E-003	2.000000000000000E+000	-1.0811801E-005	8.9301301E-007
2	1	0	0	1	4.132413895606442E+002	-3.7271369E-001	-3.7288988E-001	-2.307064406340938E-003	2.000000000000000E+000	-1.0827595E-005	8.6028098E-007
2	1	0	1	1	4.132479895604774E+002	-3.6941499E-001	-3.6959383E-001	-2.243235539511564E-003	2.000000000000000E+000	-1.0842502E-005	8.2908599E-007
2	1	0	0	1	4.132545895603107E+002	-3.6611623E-001	-3.6630210E-001	-2.183290693210436E-003	2.000000000000000E+000	-1.0857000E-005	7.9974399E-007
2	1	0	0	1	4.132613895601389E+002	-3.6271751E-001	-3.6290962E-001	-2.120931637152044E-003	2.000000000000000E+000	-1.0871521E-005	7.6970650E-007
2	1	0	1	1	4.132679895599722E+002	-3.5941875E-001	-3.5964787E-001	-2.062217385385642E-003	2.000000000000000E+000	-1.0885216E-005	7.4167207E-007
2	1	0	0	1	4.132745895598055E+002	-3.5612005E-001	-3.5633549E-001	-2.002021595247545E-003	2.000000000000000E+000	-1.0898515E-005	7.1339133E-007
2	1	0	0	1	4.132813895596337E+002	-3.5272130E-001	-3.5293788E-001	-1.940070640739579E-003	2.000000000000000E+000	-1.0911804E-005	6.8472440E-007
2	1	0	1	1	4.132879895594670E+002	-3.4942260E-001	-3.4963483E-001	-1.880062381133025E-003	2.000000000000000E+000	-1.0924303E-005	6.5733531E-007
2	1	0	0	1	4.132945895593002E+002	-3.4612384E-001	-3.4633338E-001	-1.820769716293089E-003	2.000000000000000E+000	-1.0936404E-005	6.3059332E-007
2	1	0	0	1	4.133012895591310E+002	-3.4275842E-001	-3.4297600E-001	-1.760592304733639E-003	2.000000000000000E+000	-1.0948293E-005	6.0384093E-007
2	1	0	1	1	4.133079895589617E+002	-3.3939305E-001	-3.3959213E-001	-1.699965774059814E-003	2.000000000000000E+000	-1.0959766E-005	5.7729500E-007
2	1	0	0	1	4.133145895587950E+002	-3.3609432E-001	-3.3628407E-001	-1.640755328571681E-003	2.000000000000000E+000	-1.0970679E-005	5.5175985E-007
2	1	0	1	1	4.133211895586282E+002	-3.3279556E-001	-3.3297151E-001	-1.586878107855219E-003	2.000000000000000E+000	-1.0981220E-005	5.2838521E-007
2	1	0	1	1	4.133279895584565E+002	-3.2939687E-001	-3.2957980E-001	-1.529233702164370E-003	2.000000000000000E+000	-1.0991699E-005	5.0400456E-007
2	1	0	0	1	4.133345895582897E+002	-3.2609817E-001	-3.2625335E-001	-1.470548611117315E-003	2.000000000000000E+000	-1.1001487E-005	4.7977142E-007
2	1	0	1	1	4.133411895581230E+002	-3.2279938E-001	-3.2297170E-001	-1.417576499094748E-003	2.000000000000000E+000	-1.1010905E-005	4.5783710E-007
2	1	0	1	1	4.133479895579512E+002	-3.1940070E-001	-3.1957331E-001	-1.360829599434510E-003	2.000000000000000E+000	-1.1020236E-005	4.3488481E-007
2	1	0	0	1	4.133545895577845E+002	-3.1610194E-001	-3.1629288E-001	-1.305010298771473E-003	2.000000000000000E+000	-1.1028927E-005	4.1276547E-007
2	1	0	1	1	4.133611895576178E+002	-3.1280321E-001	-3.1297830E-001	-1.249113385953630E-003	2.000000000000000E+000	-1.1037243E-005	3.9094539E-007
2	1	0	1	1	4.133679895574460E+002	-3.0940449E-001	-3.0958870E-001	-1.192313967461204E-003	2.000000000000000E+000	-1.1045431E-005	3.6912692E-007
2	1	0	0	1	4.133745895572793E+002	-3.0610576E-001	-3.0630001E-001	-1.135040334353712E-003	2.000000000000000E+000	-1.1053005E-005	3.4766288E-007
2	1	0	1	1	4.133811895571125E+002	-3.0280700E-001	-3.0300030E-001	-1.080811971299528E-003	2.000000000000000E+000	-1.1060207E-005	3.2748636E-007
2	1	0	1	1	4.133879895569407E+002	-2.9940829E-001	-2.9957783E-001	-1.024090464443358E-003	2.000000000000000E+000	-1.1067251E-005	3.0679479E-007
2	1	0	0	1	4.133945895567740E+002	-2.9610959E-001	-2.9627493E-001	-9.660948884781286E-004	2.000000000000000E+000	-1.1073710E-005	2.8622969E-007
2	1	0	1	1	4.134011895566073E+002	-2.9281083E-001	-2.9297343E-001	-9.110899192971041E-004	2.000000000000000E+000	-1.1079794E-005	2.6692513E-007
2	1	0	1	1	4.134079895564355E+002	-2.8941211E-001	-2.8957641E-001	-8.550261241756121E-004	2.000000000000000E+000	-1.1085685E-005	2.4759541E-007
2	1	0	0	1	4.134145895562688E+002	-2.8611338E-001	-2.8627262E-001	-8.004607448128783E-004	2.000000000000000E+000	-1.1091041E-005	2.2914999E-007
2	1	0	1	1	4.134211895561020E+002	-2.8281465E-001	-2.8294727E-001	-7.435399691378998E-004	2.000000000000000E+000	-1.1096025E-005	2.1038261E-007
2	1	0	1	1	4.134279895559303E+002	-2.7941594E-001	-2.7956003E-001	-6.893430025608424E-004	2.000000000000000E+000	-1.1100785E-005	1.9271275E-007
2	1	0	0	1	4.134345895557635E+002	-2.7611718E-001	-2.7628669E-001	-6.350786930473373E-004	2.000000000000000E+000	-1.1105049E-005	1.7546380E-007
2	1	0	1	1	4.134411895555968E+002	-2.7281845E-001	-2.7298206E-001	-5.802825802296244E-004	2.000000000000000E+000	-1.1108950E-005	1.5840673E-007
2	1	0	1	1	4.134479895554250E+002	-2.6941976E-001	-2.6958767E-001	-5.252349751951142E-004	2.000000000000000E+000	-1.1112596E-005	1.4159687E-007
2	1	0	0	1	4.134545895552583E+002	-2.6612100E-001	-2.6629633E-001	-4.689912385780776E-004	2.000000000000000E+000	-1.1115769E-005	1.2489065E-007
2	1	0	1	1	4.134611895550916E+002	-2.6282227E-001	-2.6298773E-001	-4.131127508382319E-004	2.000000000000000E+000	-1.1118567E-005	1.0864358E-007
2	1	0	1	1	4.134679895549198E+002	-2.5942355E-001	-2.5959256E-001	-3.601653619815202E-004	2.000000000000000E+000	-1.1121081E-005	9.3496247E-008
2	1	0	0	1	4.134745895547530E+002	-2.5611371E-001	-2.5629172E-001	-3.043930380385970E-004	2.000000000000000E+000	-1.1123164E-005	7.8013414E-008
2	1	0	1	1	4.134811895545863E+002	-2.5279275E-001	-2.5298002E-001	-2.508143589845229E-004	2.000000000000000E+000	-1.1124883E-005	6.3451026E-008
2	1	0	0	1	4.134877895544196E+002	-2.4949400E-001	-2.4966519E-001	-1.972582319903424E-004	2.000000000000000E+000	-1.1126246E-005	4.9248513E-008
2	1	0	0	1	4.134945895542478E+002	-2.4609528E-001	-2.4626386E-001	-1.430879817538274E-004	2.000000000000000E+000	-1.1127294E-005	3.5237399E-008
2	1	0	1	1	4.135011895540811E+002	-2.4279657E-001	-2.4296124E-001	-9.246357591716014E-005	2.000000000000000E+000	-1.1127962E-005	2.2465064E-008
2	1	0	0	1	4.135077895539143E+002	-2.3949780E-001	-2.3964863E-001	-4.253881160659991E-005	2.000000000000000E+000	-1.1128293E-005	1.0194368E-008
2	1	0	0	1	4.135145895537426E+002	-2.3609909E-001	-2.3627052E-001	6.834769905911274E-006	2.000000000000000E+000	-1.1128302E-005	1.6148546E-009
2	1	0	1	1	4.135211895535758E+002	-2.3280036E-001	-2.3298000E-001	5.344573205642694E-005	2.000000000000000E+000	-1.1128000E-005	1.2451786E-008
2	1	0	0	1	4.135277895534091E+002	-2.2950162E-001	-2.2967780E-001	1.011511193951269E-004	2.000000000000000E+000	-1.1127383E-005	2.3232166E-008
2	1	0	0	1	4.135345895532373E+002	-2.2610292E-001	-2.2629176E-001	1.461612886278856E-004	2.000000000000000E+000	-1.1126432E-005	3.3075096E-008
2	1	0	1	1	4.135411895530706E+002	-2.2280417E-001	-2.2298521E-001	1.913640815625209E-004	2.000000000000000E+000	-1.1125210E-005	4.2671360E-008
2	1	0	0	1	4.135477895529039E+002	-2.1950544E-001	-2.1967390E-001	2.356062739030070E-004	2.000000000000000E+000	-1.1123691E-005	5.1756551E-008
2	1	0	0	1	4.135545895527321E+002	-2.1610674E-001	-2.1628207E-001	2.755114129020823E-004	2.000000000000000E+000	-1.1121841E-005	5.9588178E-008
2	1	0	1	1	4.135611895525653E+002	-2.1280800E-001	-2.1298270E-001	3.177227358529924E-004	2.000000000000000E+000	-1.1119776E-005	6.7669447E-008
2	1	0	0	1	4.135677895523986E+002	-2.0950927E-001	-2.0964657E-001	3.598819334721766E-004	2.000000000000000E+000	-1.1117429E-005	7.5448014E-008
2	1	0	0	1	4.135745895522268E+002	-2.0611055E-001	-2.0626262E-001	3.967368023268135E-004	2.000000000000000E+000	-1.1114751E-005	8.1831971E-008
2	1	0	1	1	4.135811895520601E+002	-2.0281181E-001	-2.0296788E-001	4.304848121288755E-004	2.000000000000000E+000	-1.1111917E-005	8.7374588E-008
2	1	0	0	1	4.135877895518934E+002	-1.9951306E-001	-1.9966170E-001	4.687294473266477E-004	2.000000000000000E+000	-1.1108844E-005	9.3587317E-008
2	1	0	0	1	4.135945895517216E+002	-1.9611438E-001	-1.9624493E-001	5.025902715942729E-004	2.000000000000000E+000	-1.1105433E-005	9.8630792E-008
2	1	0	1	1	4.136011895515549E+002	-1.9281560E-001	-1.9297294E-001	5.338801569829844E-004	2.000000000000000E+000	-1.1101907E-005	1.0302443E-007
2	1	0	0	1	4.136077895513881E+002	-1.8951689E-001	-1.8968600E-001	5.653423639235683E-004	2.000000000000000E+000	-1.1098172E-005	1.0723753E-007
2	1	0	0	1	4.136145895512163E+002	-1.8611817E-001	-1.8631588E-001	5.982337312389089E-004	2.000000000000000E+000	-1.1094107E-005	1.1146044E-007
2	1	0	1	1	4.136211895510496E+002	-1.8281943E-001	-1.8298681E-001	6.294282980131042E-004	2.000000000000000E+000	-1.1089954E-005	1.1517708E-007
2	1	0	0	1	4.136277895508829E+002	-1.7952068E-001	-1.7967802E-001	6.604260990722362E-004	2.000000000000000E+000	-1.1085591E-005	1.1866405E-007
2	1	0	0	1	4.136345895507111E+002	-1.7612198E-001	-1.7626938E-001	6.912919614554397E-004	2.000000000000000E+000	-1.1080886E-005	1.2185360E-007
2	1	0	1	1	4.136411895505444E+002	-1.7282324E-001	-1.7296995E-001	7.155906391896390E-004	2.000000000000000E+000	-1.1076144E-005	1.2377568E-007
2	1	0	0	1	4.136477895503776E+002	-1.6952449E-001	-1.6966875E-001	7.430123564442226E-004	2.000000000000000E+000	-1.1071223E-005	1.2606597E-007
2	1	0	1	1	4.136543895502109E+002	-1.6619243E-001	-1.6634862E-001	7.749958653448623E-004	2.000000000000000E+000	-1.1066102E-005	1.2891950E-007
2	1	0	1	1	4.136611895500391E+002	-1.6279373E-001	-1.6294916E-001	7.990835236266029E-004	2.000000000000000E+000	-1.1060638E-005	1.3020998E-007
2	1	0	0	1	4.136677895498724E+002	-1.5949498E-001	-1.5965377E-001	8.248713789726046E-004	2.000000000000000E+000	-1.1055174E-005	1.3169382E-007
2	1	0	1	1	4.136743895497057E+002	-1.5619624E-001	-1.5634258E-001	8.493137390663242E-004	2.000000000000000E+000	-1.1049541E-005	1.3278390E-007
2	1	0	1	1	4.136811895495339E+002	-1.5279754E-001	-1.5292880E-001	8.737859828064176E-004	2.000000000000000E+000	-1.1043573E-005	1.3362704E-007
2	1	0	0	1	4.136877895493672E+002	-1.4949879E-001	-1.4963914E-001	8.957063034813490E-004	2.000000000000000E+000	-1.1037630E-005	1.3403273E-007
2	1	0	1	1	4.136943895492004E+002	-1.4620006E-001	-1.4637807E-001	9.158370475385383E-004	2.000000000000000E+000	-1.1031544E-005	1.3405845E-007
2	1	0	1	1	4.137011895490286E+002	-1.4280134E-001	-1.4294660E-001	9.410635772231554E-004	2.000000000000000E+000	-1.1025120E-005	1.3452184E-007
2	1	0	0	1	4.137077895488619E+002	-1.3950260E-001	-1.3964340E-001	9.622420727585746E-004	2.000000000000000E+000	-1.1018737E-005	1.3437075E-007
2	1	0	1	1	4.137143895486952E+002	-1.3620386E-001	-1.3637517E-001	9.839121380688688E-004	2.000000000000000E+000	-1.1012209E-005	1.3418119E-007
2	1	0	1	1	4.137211895485234E+002	-1.3280515E-001	-1.3296394E-001	1.006731186028751E-003	2.000000000000000E+000	-1.1005332E-005	1.3385895E-007
2	1	0	0	1	4.137277895483567E+002	-1.2950642E-001	-1.2966509E-001	1.025457258219833E-003	2.000000000000000E+000	-1.0998526E-005	1.3296601E-007
2	1	0	1	1	4.137343895481899E+002	-1.2620768E-001	-1.2633780E-001	1.046339412080976E-003	2.000000000000000E+000	-1.0991582E-005	1.3219221E-007
2	1	0	1	1	4.137411895480182E+002	-1.2280896E-001	-1.2292960E-001	1.068135509361433E-003	2.000000000000000E+000	-1.0984282E-005	1.3130547E-007
2	1	0	0	1	4.137477895478514E+002	-1.1951021E-001	-1.1965611E-001	1.085317962724732E-003	2.000000000000000E+000	-1.0977073E-005	1.2986493E-007
2	1	0	1	1	4.137543895476847E+002	-1.1621147E-001	-1.1635081E-001	1.102725280892022E-003	2.000000000000000E+000	-1.0969744E-005	1.2830299E-007
2	1	0	1	1	4.137611895475129E+002	-1.1281277E-001	-1.1292178E-001	1.124028030699269E-003	2.000000000000000E+000	-1.0962066E-005	1.2692725E-007
2	1	0	0	1	4.137677895473462E+002	-1.0951404E-001	-1.0963561E-001	1.138904582830950E-003	2.000000000000000E+000	-1.0954498E-005	1.2486450E-007
2	1	0	1	1	4.137743895471795E+002	-1.0621529E-001	-1.0635564E-001	1.154678373359273E-003	2.000000000000000E+000	-1.0946825E-005	1.2280655E-007
2	1	0	1	1	4.137811895470077E+002	-1.0281658E-001	-1.0294745E-001	1.171027655330668E-003	2.000000000000000E+000	-1.0938807E-005	1.2055432E-007
2	1	0	0	1	4.137877895468409E+002	-9.9517837E-002	-9.9670589E-002	1.187018467589952E-003	2.000000000000000E+000	-1.0930919E-005	1.1831083E-007
2	1	0	1	1	4.137943895466742E+002	-9.6219100E-002	-9.6358240E-002	1.202715593838853E-003	2.000000000000000E+000	-1.0922926E-005	1.1589156E-007
2	1	0	1	1	4.138011895465024E+002	-9.2820399E-002	-9.2954889E-002	1.218304839145882E-003	2.000000000000000E+000	-1.0914588E-005	1.1324739E-007
2	1	0	0	1	4.138077895463357E+002	-8.9521654E-002	-8.9666709E-002	1.231742550862693E-003	2.000000000000000E+000	-1.0906400E-005	1.1044630E-007
2	1	0	1	1	4.138143895461690E+002	-8.6222917E-002	-8.6363256E-002	1.243978726173133E-003	2.000000000000000E+000	-1.0898124E-005	1.0743405E-007
2	1	0	1	1	4.138211895459972E+002	-8.2824208E-002	-8.2993858E-002	1.254324081431456E-003	2.000000000000000E+000	-1.0889523E-005	1.0410120E-007
2	1	0	0	1	4.138277895458305E+002	-7.9492144E-002	-7.9649009E-002	1.269840044096786E-003	2.000000000000000E+000	-1.0881095E-005	1.0114150E-007
2	1	0	1	1	4.138343895456637E+002	-7.6193400E-002	-7.6342583E-002	1.279219402992269E-003	2.000000000000000E+000	-1.0872581E-005	9.7658912E-008
2	1	0	0	1	4.138409895454970E+002	-7.2894663E-002	-7.3035255E-002	1.290187885236566E-003	2.000000000000000E+000	-1.0863996E-005	9.4229200E-008
2	1	0	0	1	4.138477895453252E+002	-6.9495954E-002	-6.9636613E-002	1.300136582055227E-003	2.000000000000000E+000	-1.0855080E-005	9.0537107E-008
2	1	0	1	1	4.138543895451585E+002	-6.6197217E-002	-6.6337302E-002	1.306411386910140E-003	2.000000000000000E+000	-1.0846377E-005	8.6663810E-008
2	1	0	0	1	4.138609895449918E+002	-6.2898472E-002	-6.3046061E-002	1.313133328161110E-003	2.000000000000000E+000	-1.0837625E-005	8.2787885E-008
2	1	0	0	1	4.138677895448200E+002	-5.9499767E-002	-5.9661657E-002	1.319726043736098E-003	2.000000000000000E+000	-1.0828566E-005	7.8737045E-008
2	1	0	1	1	4.138743895446532E+002	-5.6201022E-002	-5.6371246E-002	1.327378139437015E-003	2.000000000000000E+000	-1.0819730E-005	7.4825962E-008
2	1	0	0	1	4.138809895444865E+002	-5.2902278E-002	-5.3067226E-002	1.335196458345917E-003	2.000000000000000E+000	-1.0810839E-005	7.0855172E-008
2	1	0	0	1	4.138877895443147E+002	-4.9503576E-002	-4.9667947E-002	1.342491937263430E-003	2.000000000000000E+000	-1.0801628E-005	6.6678815E-008
2	1	0	1	1	4.138943895441480E+002	-4.6204839E-002	-4.6359595E-002	1.345652554467357E-003	2.000000000000000E+000	-1.0792653E-005	6.2383904E-008
2	1	0	0	1	4.139009895439813E+002	-4.2906091E-002	-4.3059587E-002	1.351069042675589E-003	2.000000000000000E+000	-1.0783649E-005	5.8176475E-008
2	1	0	0	1	4.139077895438095E+002	-3.9507389E-002	-3.9634809E-002	1.359753577526136E-003	2.000000000000000E+000	-1.0774326E-005	5.3893572E-008
2	1	0	1	1	4.139143895436428E+002	-3.6208645E-002	-3.6354121E-002	1.359988086657420E-003	2.000000000000000E+000	-1.0765248E-005	4.9441173E-008
2	1	0	0	1	4.139209895434760E+002	-3.2909900E-002	-3.3065688E-002	1.364119532778811E-003	2.000000000000000E+000	-1.0756148E-005	4.5105551E-008
2	1	0	0	1	4.139277895433042E+002	-2.9511198E-002	-2.9653370E-002	1.370454337120469E-003	2.000000000000000E+000	-1.0746740E-005	4.0638589E-008
2	1	0	1	1	4.139343895431375E+002	-2.6212456E-002	-2.6340701E-002	1.372060230505671E-003	2.000000000000000E+000	-1.0737590E-005	3.6141028E-008
2	1	0	0	1	4.139409895429708E+002	-2.2913715E-002	-2.3045074E-002	1.373858113811365E-003	2.000000000000000E+000	-1.0728421E-005	3.1660662E-008
2	1	0	0	1	4.139477895427990E+002	-1.9515010E-002	-1.9660991E-002	1.375213809888011E-003	2.000000000000000E+000	-1.0718968E-005	2.7038066E-008
2	1	0	1	1	4.139543895426323E+002	-1.6216265E-002	-1.6358055E-002	1.377989778438863E-003	2.000000000000000E+000	-1.0709784E-005	2.2541233E-008
2	1	0	0	1	4.139609895424655E+002	-1.2917524E-002	-1.3070249E-002	1.379145625818031E-003	2.000000000000000E+000	-1.0700584E-005	1.8025776E-008
2	1	0	0	1	4.139677895422938E+002	-9.5188189E-003	-9.6554533E-003	1.382854133074336E-003	2.000000000000000E+000	-1.0691089E-005	1.3352084E-008
2	1	0	1	1	4.139743895421270E+002	-6.2200776E-003	-6.3591902E-003	1.385842756235434E-003	2.000000000000000E+000	-1.0681852E-005	8.8128376E-009
2	1	0	0	1	4.139809895419603E+002	-2.9213347E-003	-3.0791427E-003	1.384562482962795E-003	2.000000000000000E+000	-1.0672603E-005	4.2632653E-009
2	1	0	0	1	4.139877895417885E+002	4.9038016E-004	3.2515969E-004	1.389279549963859E-003	2.000000000000000E+000	-1.0663064E-005	4.5173770E-010
2	1	0	1	1	4.139943895416218E+002	3.7761105E-003	3.6511812E-003	1.394626748121186E-003	2.000000000000000E+000	-1.0653775E-005	5.0920348E-009
2	1	0	0	1	4.140009895414551E+002	7.0970650E-003	6.9691907E-003	1.396450085060981E-003	2.000000000000000E+000	-1.0644459E-005	9.7321271E-009
2	1	0	1	1	4.140075895412883E+002	1.0406912E-002	1.0296229E-002	1.395801657084425E-003	2.000000000000000E+000	-1.0635140E-005	1.4371494E-008
2	1	0	1	1	4.140143895411165E+002	1.3805617E-002	1.3696397E-002	1.398665386750517E-003	2.000000000000000E+000	-1.0625535E-005	1.9156676E-008
2	1	0	0	1	4.140209895409498E+002	1.7104356E-002	1.7009318E-002	1.397900258568070E-003	2.000000000000000E+000	-1.0616203E-005	2.3777330E-008
2	1	0	1	1	4.140275895407831E+002	2.0403096E-002	2.0295152E-002	1.399107142545595E-003	2.000000000000000E+000	-1.0606868E-005	2.8395092E-008
2	1	0	1	1	4.140343895406113E+002	2.3801802E-002	2.3673192E-002	1.397413556014727E-003	2.000000000000000E+000	-1.0597252E-005	3.3081239E-008
2	1	0	0	1	4.140409895404446E+002	2.7100539E-002	2.6994063E-002	1.402624810164822E-003	2.000000000000000E+000	-1.0587912E-005	3.7862542E-008
2	1	0	1	1	4.140475895402778E+002	3.0399282E-002	3.0264063E-002	1.403828833751199E-003	2.000000000000000E+000	-1.0578548E-005	4.2485564E-008
2	1	0	1	1	4.140543895401061E+002	3.3797983E-002	3.3679742E-002	1.405465613546163E-003	2.000000000000000E+000	-1.0568890E-005	4.7335721E-008
2	1	0	0	1	4.140609895399393E+002	3.7096728E-002	3.6992345E-002	1.408690677135383E-003	2.000000000000000E+000	-1.0559500E-005	5.2110771E-008
2	1	0	1	1	4.140675895397726E+002	4.0395468E-002	4.0269591E-002	1.407748856703014E-003	2.000000000000000E+000	-1.0550101E-005	5.6689469E-008
2	1	0	1	1	4.140743895396008E+002	4.3794166E-002	4.3683305E-002	1.412452670789818E-003	2.000000000000000E+000	-1.0540404E-005	6.1700604E-008
2	1	0	0	1	4.140809895394341E+002	4.7092907E-002	4.6991587E-002	1.417141657339022E-003	2.000000000000000E+000	-1.0530964E-005	6.6593735E-008
2	1	0	1	1	4.140875895392674E+002	5.0391652E-002	5.0286446E-002	1.417182314753518E-003	2.000000000000000E+000	-1.0521507E-005	7.1265063E-008
2	1	0	1	1	4.140943895390956E+002	5.3790350E-002	5.3695582E-002	1.420320284114495E-003	2.000000000000000E+000	-1.0511751E-005	7.6264925E-008
2	1	0	0	1	4.141009895389288E+002	5.7089094E-002	5.7027578E-002	1.425646821280684E-003	2.000000000000000E+000	-1.0502257E-005	8.1301188E-008
2	1	0	1	1	4.141075895387621E+002	6.0387839E-002	6.0322132E-002	1.427009306371477E-003	2.000000000000000E+000	-1.0492741E-005	8.6080242E-008
2	1	0	1	1	4.141143895385903E+002	6.3786536E-002	6.3701496E-002	1.428921881718753E-003	2.000000000000000E+000	-1.0482926E-005	9.1024461E-008
2	1	0	0	1	4.141209895384236E+002	6.7085281E-002	6.7014106E-002	1.432520796273216E-003	2.000000000000000E+000	-1.0473386E-005	9.5999098E-008
2	1	0	1	1	4.141275895382569E+002	7.0384026E-002	7.0288680E-002	1.436319724234643E-003	2.000000000000000E+000	-1.0463816E-005	1.0095702E-007
2	1	0	1	1	4.141343895380851E+002	7.3782727E-002	7.3683828E-002	1.439530197785649E-003	2.000000000000000E+000	-1.0453932E-005	1.0607010E-007
2	1	0	0	1	4.141409895379184E+002	7.7081464E-002	7.6972574E-002	1.444591069821399E-003	2.000000000000000E+000	-1.0444312E-005	1.1119389E-007
2	1	0	1	1	4.141475895377516E+002	8.0380201E-002	8.0298536E-002	1.448783737684305E-003	2.000000000000000E+000	-1.0434657E-005	1.1633522E-007
2	1	0	1	1	4.141543895375798E+002	8.3778903E-002	8.3682172E-002	1.452564799016422E-003	2.000000000000000E+000	-1.0424691E-005	1.2155378E-007
2	1	0	0	1	4.141609895374131E+002	8.7077647E-002	8.6954027E-002	1.455016901112089E-003	2.000000000000000E+000	-1.0414995E-005	1.2651958E-007
2	1	0	1	1	4.141675895372464E+002	9.0376392E-002	9.0261534E-002	1.462014447436870E-003	2.000000000000000E+000	-1.0405264E-005	1.3196366E-007
2	1	0	1	1	4.141742895370771E+002	9.3741767E-002	9.3627937E-002	1.468422275765675E-003	2.000000000000000E+000	-1.0395343E-005	1.3748534E-007
2	1	0	0	1	4.141809895369079E+002	9.7107165E-002	9.6993513E-002	1.475403132083858E-003	2.000000000000000E+000	-1.0385369E-005	1.4310453E-007
2	1	0	1	1	4.141852895367992E+002	9.9263489E-002	9.9151246E-002	1.479982746721883E-003	2.000000000000000E+000	-1.0378953E-005	1.4674214E-007
2	0	0	1	1	4.141871895367512E+002	9.9906117E-002	9.9784076E-002	1.446739974198863E-003	2.000000000000000E+000	-1.0376147E-005	1.4436161E-007
2	0	0	1	1	4.141909895366553E+002	9.8040134E-002	9.7930379E-002	9.000166056239382E-004	2.000000000000000E+000	-1.0372485E-005	8.8138968E-008
2	0	0	0	1	4.141975895364885E+002	9.4730280E-002	9.4595082E-002	3.784109226141206E-004	2.000000000000000E+000	-1.0368478E-005	3.5795811E-008
2	0	0	1	1	4.142041895363218E+002	9.1409326E-002	9.1270640E-002	1.097825780140252E-004	2.000000000000000E+000	-1.0367024E-005	1.0019926E-008
2	0	0	0	1	4.142107895361551E+002	8.8110581E-002	8.7965541E-002	-5.642721650318718E-005	2.000000000000000E+000	-1.0366981E-005	4.9636508E-009
2	0	0	0	1	4.142175895359833E+002	8.4711887E-002	8.4592864E-002	-1.742482138354258E-004	2.000000000000000E+000	-1.0367890E-005	1.4740156E-008
2	0	0	1	1	4.142241895358165E+002	8.1413142E-002	8.1294112E-002	-2.681662734138014E-004	2.000000000000000E+000	-1.0369462E-005	2.1800339E-008
2	0	0	0	1	4.142307895356498E+002	7.8114405E-002	7.7997342E-002	-3.479343379884378E-004	2.000000000000000E+000	-1.0371609E-005	2.7137954E-008
2	0	0	0	1	4.142375895354780E+002	7.4715704E-002	7.4596860E-002	-4.224047484058229E-004	2.000000000000000E+000	-1.0374346E-005	3.1510069E-008
2	0	0	1	1	4.142441895353113E+002	7.1416959E-002	7.1307711E-002	-4.834718444423432E-004	2.000000000000000E+000	-1.0377445E-005	3.4475271E-008
2	0	0	0	1	4.142507895351446E+002	6.8118215E-002	6.7994401E-002	-5.429435495974159E-004	2.000000000000000E+000	-1.0380945E-005	3.6917122E-008
2	0	0	0	1	4.142575895349728E+002	6.4719513E-002	6.4599581E-002	-5.986551909093864E-004	2.000000000000000E+000	-1.0384942E-005	3.8672873E-008
2	0	0	1	1	4.142641895348061E+002	6.1420772E-002	6.1300900E-002	-6.503908632718462E-004	2.000000000000000E+000	-1.0389171E-005	3.9869544E-008
2	0	0	0	1	4.142707895346393E+002	5.8122039E-002	5.8020994E-002	-6.983435280214223E-004	2.000000000000000E+000	-1.0393734E-005	4.0518586E-008
2	0	0	0	1	4.142775895344676E+002	5.4723330E-002	5.4608420E-002	-7.502076018605884E-004	2.000000000000000E+000	-1.0398771E-005	4.0967652E-008
2	0	0	1	1	4.142841895343008E+002	5.1424593E-002	5.1306181E-002	-7.962702664220426E-004	2.000000000000000E+000	-1.0403980E-005	4.0853585E-008
2	0	0	0	1	4.142907895341341E+002	4.8125844E-002	4.8006933E-002	-8.379799590329637E-004	2.000000000000000E+000	-1.0409484E-005	4.0228848E-008
2	0	0	0	1	4.142975895339623E+002	4.4727150E-002	4.4596463E-002	-8.845028765335876E-004	2.000000000000000E+000	-1.0415453E-005	3.9445702E-008
2	0	0	1	1	4.143041895337956E+002	4.1428406E-002	4.1272540E-002	-9.261779775897559E-004	2.000000000000000E+000	-1.0421536E-005	3.8225718E-008
2	0	0	0	1	4.143107895336288E+002	3.8129665E-002	3.7979711E-002	-9.641215195794438E-004	2.000000000000000E+000	-1.0427882E-005	3.6617056E-008
2	0	0	0	1	4.143175895334571E+002	3.4730963E-002	3.4587175E-002	-1.005475309633158E-003	2.000000000000000E+000	-1.0434685E-005	3.4776551E-008
2	0	0	1	1	4.143241895332903E+002	3.1432223E-002	3.1292628E-002	-1.042680138455881E-003	2.000000000000000E+000	-1.0441549E-005	3.2628201E-008
2	0	0	0	1	4.143307895331236E+002	2.8133482E-002	2.7988611E-002	-1.080926027952954E-003	2.000000000000000E+000	-1.0448662E-005	3.0253617E-008
2	0	0	0	1	4.143375895329518E+002	2.4734778E-002	2.4588890E-002	-1.116927725540033E-003	2.000000000000000E+000	-1.0456243E-005	2.7464013E-008
2	0	0	1	1	4.143441895327851E+002	2.1436036E-002	2.1311639E-002	-1.150323911375987E-003	2.000000000000000E+000	-1.0463837E-005	2.4515288E-008
2	0	0	0	1	4.143507895326184E+002	1.8137295E-002	1.7989179E-002	-1.186995035520035E-003	2.000000000000000E+000	-1.0471664E-005	2.1353067E-008
2	0	0	0	1	4.143575895324466E+002	1.4738593E-002	1.4614321E-002	-1.221726547100843E-003	2.000000000000000E+000	-1.0479967E-005	1.7854704E-008
2	0	0	1	1	4.143641895322799E+002	1.1439851E-002	1.1292178E-002	-1.259097961171084E-003	2.000000000000000E+000	-1.0488262E-005	1.4217958E-008
2	0	0	0	1	4.143707895321131E+002	8.1411107E-003	7.9867598E-003	-1.292918746548820E-003	2.000000000000000E+000	-1.0496794E-005	1.0326231E-008
2	0	0	1	1	4.143773895319464E+002	4.8090494E-003	4.6614381E-003	-1.328943002863521E-003	2.000000000000000E+000	-1.0505560E-005	6.1947856E-009
2	0	0	1	1	4.143841895317746E+002	1.4103466E-003	1.2430205E-003	-1.364521070278592E-003	2.000000000000000E+000	-1.0514828E-005	1.6961277E-009
2	0	0	0	1	4.143907895316079E+002	-1.8883951E-003	-2.0894881E-003	-1.396166998665649E-003	2.000000000000000E+000	-1.0524045E-005	2.9172744E-009
2	0	0	1	1	4.143973895314411E+002	-5.1871380E-003	-5.3767846E-003	-1.425019115110138E-003	2.000000000000000E+000	-1.0533463E-005	7.6620212E-009
2	0	0	1	1	4.144041895312694E+002	-8.5858423E-003	-8.7705944E-003	-1.457993127284375E-003	2.000000000000000E+000	-1.0543373E-005	1.2787466E-008
2	0	0	0	1	4.144107895311026E+002	-1.1884584E-002	-1.2084471E-002	-1.488245141172226E-003	2.000000000000000E+000	-1.0553202E-005	1.7984656E-008
2	0	0	1	1	4.144173895309359E+002	-1.5183326E-002	-1.5354471E-002	-1.518568207226657E-003	2.000000000000000E+000	-1.0563234E-005	2.3316812E-008
2	0	0	1	1	4.144241895307641E+002	-1.8582031E-002	-1.8764369E-002	-1.550726093607097E-003	2.000000000000000E+000	-1.0573781E-005	2.9098397E-008
2	0	0	0	1	4.144307895305974E+002	-2.1880776E-002	-2.2045754E-002	-1.580158441993253E-003	2.000000000000000E+000	-1.0584217E-005	3.4835786E-008
2	0	0	1	1	4.144373895304307E+002	-2.5179518E-002	-2.5345130E-002	-1.610122803837533E-003	2.000000000000000E+000	-1.0594854E-005	4.0808771E-008
2	0	0	1	1	4.144441895302589E+002	-2.8578220E-002	-2.8732330E-002	-1.641778927872414E-003	2.000000000000000E+000	-1.0606021E-005	4.7172133E-008
2	0	0	0	1	4.144507895300922E+002	-3.1876963E-002	-3.2063566E-002	-1.673391720911844E-003	2.000000000000000E+000	-1.0617065E-005	5.3654905E-008
2	0	0	1	1	4.144573895299254E+002	-3.5175703E-002	-3.5340305E-002	-1.702301174979461E-003	2.000000000000000E+000	-1.0628314E-005	6.0159842E-008
2	0	0	1	1	4.144641895297536E+002	-3.8574409E-002	-3.8747787E-002	-1.732690192936082E-003	2.000000000000000E+000	-1.0640103E-005	6.7137911E-008
2	0	0	0	1	4.144707895295869E+002	-4.1873150E-002	-4.2069104E-002	-1.763414063680101E-003	2.000000000000000E+000	-1.0651745E-005	7.4185252E-008
2	0	0	1	1	4.144773895294202E+002	-4.5171894E-002	-4.5360725E-002	-1.792501108138826E-003	2.000000000000000E+000	-1.0663591E-005	8.1309153E-008
2	0	0	1	1	4.144841895292484E+002	-4.8570599E-002	-4.8764836E-002	-1.821223181195816E-003	2.000000000000000E+000	-1.0675986E-005	8.8811653E-008
2	0	0	0	1	4.144907895290817E+002	-5.1869344E-002	-5.2060273E-002	-1.850915294744484E-003	2.000000000000000E+000	-1.0688209E-005	9.6359152E-008
2	0	0	1	1	4.144973895289149E+002	-5.5168085E-002	-5.5372115E-002	-1.879370012769263E-003	2.000000000000000E+000	-1.0700630E-005	1.0406470E-007
2	0	0	1	1	4.145041895287432E+002	-5.8566786E-002	-5.8752697E-002	-1.906743505909010E-003	2.000000000000000E+000	-1.0713619E-005	1.1202632E-007
2	0	0	0	1	4.145107895285764E+002	-6.1865531E-002	-6.2052328E-002	-1.935299996087755E-003	2.000000000000000E+000	-1.0726404E-005	1.2008987E-007
2	0	0	1	1	4.145173895284097E+002	-6.5164275E-002	-6.5358259E-002	-1.963862738011812E-003	2.000000000000000E+000	-1.0739377E-005	1.2835464E-007
2	0	0	1	1	4.145241895282379E+002	-6.8562977E-002	-6.8730257E-002	-1.990555120088777E-003	2.000000000000000E+000	-1.0752930E-005	1.3681137E-007
2	0	0	0	1	4.145307895280712E+002	-7.1861722E-002	-7.2052479E-002	-2.020888689518552E-003	2.000000000000000E+000	-1.0766274E-005	1.4561004E-007
2	0	0	1	1	4.145373895279045E+002	-7.5160466E-002	-7.5348407E-002	-2.049388329487555E-003	2.000000000000000E+000	-1.0779817E-005	1.5441815E-007
2	0	0	1	1	4.145441895277327E+002	-7.8559160E-002	-7.8769825E-002	-2.077431002332243E-003	2.000000000000000E+000	-1.0793958E-005	1.6363887E-007
2	0	0	0	1	4.145507895275659E+002	-8.1891231E-002	-8.2070023E-002	-2.109834285996239E-003	2.000000000000000E+000	-1.0807879E-005	1.7315415E-007
2	0	0	1	1	4.145573895273992E+002	-8.5189976E-002	-8.5366160E-002	-2.133035591881102E-003	2.000000000000000E+000	-1.0821988E-005	1.8208905E-007
2	0	0	0	1	4.145639895272325E+002	-8.8488720E-002	-8.8664904E-002	-2.159822927599937E-003	2.000000000000000E+000	-1.0836264E-005	1.9150049E-007
2	0	0	0	1	4.145707895270607E+002	-9.1887414E-002	-9.2047766E-002	-2.188532446931880E-003	2.000000000000000E+000	-1.0851156E-005	2.0144952E-007
2	0	0	1	1	4.145773895268940E+002	-9.5186152E-002	-9.5371962E-002	-2.217743586516000E-003	2.000000000000000E+000	-1.0865801E-005	2.1151055E-007
2	0	0	0	1	4.145839895267272E+002	-9.8484904E-002	-9.8661549E-002	-2.244669265413297E-003	2.000000000000000E+000	-1.0880633E-005	2.2146254E-007
2	0	0	0	1	4.145907895265555E+002	-1.0188361E-001	-1.0203264E-001	-2.272809825505345E-003	2.000000000000000E+000	-1.0896100E-005	2.3190078E-007
2	0	0	1	1	4.145973895263887E+002	-1.0518233E-001	-1.0535976E-001	-2.299398012170668E-003	2.000000000000000E+000	-1.0911293E-005	2.4226401E-007
2	0	0	0	1	4.146039895262220E+002	-1.0848109E-001	-1.0865030E-001	-2.326674600408293E-003	2.000000000000000E+000	-1.0926668E-005	2.5279391E-007
2	0	0	0	1	4.146107895260502E+002	-1.1187980E-001	-1.1204723E-001	-2.355169504759628E-003	2.000000000000000E+000	-1.0942698E-005	2.6389020E-007
2	0	0	1	1	4.146173895258835E+002	-1.1517854E-001	-1.1535270E-001	-2.384361754017530E-003	2.000000000000000E+000	-1.0958443E-005	2.7504257E-007
2	0	0	0	1	4.146239895257168E+002	-1.1847728E-001	-1.1863695E-001	-2.411777136027611E-003	2.000000000000000E+000	-1.0974380E-005	2.8612590E-007
2	0	0	0	1	4.146307895255450E+002	-1.2187599E-001	-1.2204061E-001	-2.441471214084841E-003	2.000000000000000E+000	-1.0990992E-005	2.9795862E-007
2	0	0	1	1	4.146373895253782E+002	-1.2517473E-001	-1.2534985E-001	-2.468962249956040E-003	2.000000000000000E+000	-1.1007299E-005	3.0948405E-007
2	0	0	0	1	4.146439895252115E+002	-1.2847348E-001	-1.2867366E-001	-2.498593256132151E-003	2.000000000000000E+000	-1.1023804E-005	3.2150314E-007
2	0	0	0	1	4.146507895250397E+002	-1.3187219E-001	-1.3205945E-001	-2.526400174247099E-003	2.000000000000000E+000	-1.1041000E-005	3.3363503E-007
2	0	0	1	1	4.146573895248730E+002	-1.3517094E-001	-1.3536386E-001	-2.553594746283729E-003	2.000000000000000E+000	-1.1057869E-005	3.4566446E-007
2	0	0	0	1	4.146639895247063E+002	-1.3846967E-001	-1.3867262E-001	-2.584608358210963E-003	2.000000000000000E+000	-1.1074936E-005	3.5841441E-007
2	0	0	0	1	4.146707895245345E+002	-1.4186837E-001	-1.4207332E-001	-2.612874149478250E-003	2.000000000000000E+000	-1.1092718E-005	3.7121970E-007
2	0	0	1	1	4.146773895243678E+002	-1.4516711E-001	-1.4537372E-001	-2.639726639881705E-003	2.000000000000000E+000	-1.1110155E-005	3.8374688E-007
2	0	0	0	1	4.146839895242010E+002	-1.4846586E-001	-1.4866106E-001	-2.665629267661028E-003	2.000000000000000E+000	-1.1127771E-005	3.9627528E-007
2	0	0	0	1	4.146907895240292E+002	-1.5186456E-001	-1.5206726E-001	-2.695588741607927E-003	2.000000000000000E+000	-1.1146108E-005	4.0991080E-007
2	0	0	1	1	4.146973895238625E+002	-1.5516330E-001	-1.5535450E-001	-2.722033702957552E-003	2.000000000000000E+000	-1.1164090E-005	4.2288019E-007
2	0	0	0	1	4.147039895236958E+002	-1.5846203E-001	-1.5865237E-001	-2.752934721532554E-003	2.000000000000000E+000	-1.1182267E-005	4.3675959E-007
2	0	0	0	1	4.147107895235240E+002	-1.6186075E-001	-1.6204827E-001	-2.782660450854256E-003	2.000000000000000E+000	-1.1201199E-005	4.5092531E-007
2	0	0	1	1	4.147173895233573E+002	-1.6515949E-001	-1.6535337E-001	-2.810249285873090E-003	2.000000000000000E+000	-1.1219762E-005	4.6468421E-007
2	0	0	0	1	4.147239895231905E+002	-1.6848046E-001	-1.6868989E-001	-2.843614330170871E-003	2.000000000000000E+000	-1.1238527E-005	4.7968899E-007
2	0	0	1	1	4.147305895230238E+002	-1.7179030E-001	-1.7200606E-001	-2.871898800488749E-003	2.000000000000000E+000	-1.1257496E-005	4.9398398E-007
2	0	0	1	1	4.147373895228520E+002	-1.7518899E-001	-1.7539300E-001	-2.899386997190348E-003	2.000000000000000E+000	-1.1277228E-005	5.0853220E-007
2	0	0	0	1	4.147439895226853E+002	-1.7848773E-001	-1.7870148E-001	-2.929492461195567E-003	2.000000000000000E+000	-1.1296566E-005	5.2350464E-007
2	0	0	1	1	4.147505895225186E+002	-1.8178649E-001	-1.8199411E-001	-2.959293817790847E-003	2.000000000000000E+000	-1.1316110E-005	5.3857406E-007
2	0	0	1	1	4.147573895223468E+002	-1.8518518E-001	-1.8539777E-001	-2.989293780410662E-003	2.000000000000000E+000	-1.1336448E-005	5.5420844E-007
2	0	0	0	1	4.147639895221801E+002	-1.8848392E-001	-1.8869354E-001	-3.017720553392184E-003	2.000000000000000E+000	-1.1356378E-005	5.6942434E-007
2	0	0	1	1	4.147705895220133E+002	-1.9178270E-001	-1.9197549E-001	-3.047131277920317E-003	2.000000000000000E+000	-1.1376505E-005	5.8497454E-007
2	0	0	1	1	4.147773895218415E+002	-1.9518140E-001	-1.9537273E-001	-3.078058291915403E-003	2.000000000000000E+000	-1.1397443E-005	6.0136864E-007
2	0	0	0	1	4.147839895216748E+002	-1.9848013E-001	-1.9866751E-001	-3.110817529007666E-003	2.000000000000000E+000	-1.1417975E-005	6.1801836E-007
2	0	0	1	1	4.147905895215081E+002	-2.0177887E-001	-2.0198287E-001	-3.145772840828912E-003	2.000000000000000E+000	-1.1438731E-005	6.3539221E-007
2	0	0	1	1	4.147973895213363E+002	-2.0517758E-001	-2.0537879E-001	-3.179061908940633E-003	2.000000000000000E+000	-1.1460344E-005	6.5291187E-007
2	0	0	0	1	4.148039895211696E+002	-2.0847631E-001	-2.0867862E-001	-3.211442199790328E-003	2.000000000000000E+000	-1.1481536E-005	6.7015930E-007
2	0	0	1	1	4.148105895210028E+002	-2.1177506E-001	-2.1198830E-001	-3.248022891481619E-003	2.000000000000000E+000	-1.1502962E-005	6.8854285E-007
2	0	0	1	1	4.148173895208311E+002	-2.1517377E-001	-2.1539271E-001	-3.283822747956335E-003	2.000000000000000E+000	-1.1525283E-005	7.0731147E-007
2	0	0	0	1	4.148239895206643E+002	-2.1847250E-001	-2.1867970E-001	-3.317453081763240E-003	2.000000000000000E+000	-1.1547177E-005	7.2545964E-007
2	0	0	1	1	4.148305895204976E+002	-2.2177126E-001	-2.2198115E-001	-3.356286647309997E-003	2.000000000000000E+000	-1.1569310E-005	7.4503237E-007
2	0	0	1	1	4.148373895203258E+002	-2.2516994E-001	-2.2538793E-001	-3.395314397312173E-003	2.000000000000000E+000	-1.1592379E-005	7.6526288E-007
2	0	0	0	1	4.148439895201591E+002	-2.2846867E-001	-2.2870195E-001	-3.435242549615698E-003	2.000000000000000E+000	-1.1615024E-005	7.8564665E-007
2	0	0	1	1	4.148505895199924E+002	-2.3176742E-001	-2.3199821E-001	-3.475870020277686E-003	2.000000000000000E+000	-1.1637938E-005	8.0639563E-007
2	0	0	1	1	4.148573895198206E+002	-2.3516612E-001	-2.3538299E-001	-3.516128401315648E-003	2.000000000000000E+000	-1.1661820E-005	8.2763682E-007
2	0	0	0	1	4.148639895196538E+002	-2.3846489E-001	-2.3867036E-001	-3.558445022342000E-003	2.000000000000000E+000	-1.1685271E-005	8.4929536E-007
2	0	0	1	1	4.148705895194871E+002	-2.4176361E-001	-2.4196725E-001	-3.604283783351999E-003	2.000000000000000E+000	-1.1709016E-005	8.7211862E-007
2	0	0	1	1	4.148773895193153E+002	-2.4516232E-001	-2.4537809E-001	-3.653180526392427E-003	2.000000000000000E+000	-1.1733804E-005	8.9641048E-007
2	0	0	0	1	4.148839895191486E+002	-2.4846107E-001	-2.4867901E-001	-3.700772211232106E-003	2.000000000000000E+000	-1.1758178E-005	9.2030439E-007
2	0	0	1	1	4.148905895189819E+002	-2.5175983E-001	-2.5196433E-001	-3.747335818297851E-003	2.000000000000000E+000	-1.1782867E-005	9.4419494E-007
2	0	0	1	1	4.148972895188126E+002	-2.5512519E-001	-2.5532660E-001	-3.799278575162778E-003	2.000000000000000E+000	-1.1808261E-005	9.7005693E-007
2	0	0	0	1	4.149039895186434E+002	-2.5849059E-001	-2.5869513E-001	-3.853386138689519E-003	2.000000000000000E+000	-1.1834014E-005	9.9685224E-007
2	0	0	1	1	4.149105895184766E+002	-2.6178932E-001	-2.6199171E-001	-3.904332134152356E-003	2.000000000000000E+000	-1.1859719E-005	1.0229027E-006
2	0	0	0	1	4.149171895183099E+002	-2.6508808E-001	-2.6529062E-001	-3.958655064282838E-003	2.000000000000000E+000	-1.1885776E-005	1.0501941E-006
2	0	0	0	1	4.149239895181381E+002	-2.6848677E-001	-2.6869926E-001	-4.014008735794047E-003	2.000000000000000E+000	-1.1912997E-005	1.0785611E-006
2	0	0	1	1	4.149305895179714E+002	-2.7178550E-001	-2.7199194E-001	-4.069150560402093E-003	2.000000000000000E+000	-1.1939785E-005	1.1067762E-006
2	0	0	0	1	4.149371895178047E+002	-2.7508426E-001	-2.7528280E-001	-4.126655411285664E-003	2.000000000000000E+000	-1.1966944E-005	1.1359973E-006
2	0	0	0	1	4.149439895176329E+002	-2.7848294E-001	-2.7865809E-001	-4.183738365948847E-003	2.000000000000000E+000	-1.1995312E-005	1.1658326E-006
2	0	0	1	1	4.149505895174661E+002	-2.8178167E-001	-2.8196213E-001	-4.241197366779176E-003	2.000000000000000E+000	-1.2023226E-005	1.1958571E-006
2	0	0	0	1	4.149571895172994E+002	-2.8508043E-001	-2.8525320E-001	-4.300396857252052E-003	2.000000000000000E+000	-1.2051528E-005	1.2267019E-006
2	0	0	0	1	4.149639895171276E+002	-2.8847915E-001	-2.8866112E-001	-4.362406817441905E-003	2.000000000000000E+000	-1.2081099E-005	1.2592573E-006
2	0	0	1	1	4.149705895169609E+002	-2.9177791E-001	-2.9195693E-001	-4.422437290728928E-003	2.000000000000000E+000	-1.2110194E-005	1.2911612E-006
2	0	0	0	1	4.149771895167942E+002	-2.9507664E-001	-2.9525262E-001	-4.480498865026038E-003	2.000000000000000E+000	-1.2139681E-005	1.3228790E-006
2	0	0	0	1	4.149839895166224E+002	-2.9847533E-001	-2.9870844E-001	-4.546326200943425E-003	2.000000000000000E+000	-1.2170482E-005	1.3580260E-006
2	0	0	1	1	4.149905895164557E+002	-3.0177408E-001	-3.0199414E-001	-4.602668789326943E-003	2.000000000000000E+000	-1.2200778E-005	1.3899790E-006
2	0	0	0	1	4.149971895162889E+002	-3.0507278E-001	-3.0529180E-001	-4.659209914461809E-003	2.000000000000000E+000	-1.2231450E-005	1.4224186E-006
2	0	0	0	1	4.150039895161171E+002	-3.0847150E-001	-3.0868840E-001	-4.722988121102369E-003	2.000000000000000E+000	-1.2263460E-005	1.4579316E-006
2	0	0	1	1	4.150105895159504E+002	-3.1177023E-001	-3.1199050E-001	-4.779780781185149E-003	2.000000000000000E+000	-1.2294921E-005	1.4912462E-006
2	0	0	0	1	4.150171895157837E+002	-3.1506899E-001	-3.1528708E-001	-4.835193180345712E-003	2.000000000000000E+000	-1.2326763E-005	1.5244740E-006
2	0	0	0	1	4.150239895156119E+002	-3.1846771E-001	-3.1867734E-001	-4.895376406966516E-003	2.000000000000000E+000	-1.2359962E-005	1.5600455E-006
2	0	0	1	1	4.150305895154452E+002	-3.2176644E-001	-3.2196471E-001	-4.952207553712160E-003	2.000000000000000E+000	-1.2392564E-005	1.5944361E-006
2	0	0	0	1	4.150371895152784E+002	-3.2506517E-001	-3.2525453E-001	-5.006977942017932E-003	2.000000000000000E+000	-1.2425538E-005	1.6285422E-006
2	0	0	0	1	4.150439895151067E+002	-3.2846388E-001	-3.2866699E-001	-5.065677772896994E-003	2.000000000000000E+000	-1.2459898E-005	1.6649210E-006
2	0	0	1	1	4.150505895149399E+002	-3.3176267E-001	-3.3197260E-001	-5.121917757181405E-003	2.000000000000000E+000	-1.2493628E-005	1.7003364E-006
2	0	0	0	1	4.150571895147732E+002	-3.3506137E-001	-3.3526707E-001	-5.175404002936063E-003	2.000000000000000E+000	-1.2527721E-005	1.7351425E-006
2	0	0	0	1	4.150639895146014E+002	-3.3846006E-001	-3.3867213E-001	-5.232366497693874E-003	2.000000000000000E+000	-1.2563220E-005	1.7720567E-006
2	0	0	1	1	4.150705895144347E+002	-3.4176996E-001	-3.4202385E-001	-5.290727577084899E-003	2.000000000000000E+000	-1.2598056E-005	1.8095550E-006
2	0	0	0	1	4.150771895142680E+002	-3.4509090E-001	-3.4533396E-001	-5.343042851624590E-003	2.000000000000000E+000	-1.2633255E-005	1.8451342E-006
2	0	0	1	1	4.150837895141012E+002	-3.4838963E-001	-3.4861833E-001	-5.392590862235605E-003	2.000000000000000E+000	-1.2668793E-005	1.8799560E-006
2	0	0	1	1	4.150905895139294E+002	-3.5178834E-001	-3.5201523E-001	-5.446214624438048E-003	2.000000000000000E+000	-1.2705760E-005	1.9171505E-006
2	0	0	0	1	4.150971895137627E+002	-3.5508710E-001	-3.5533610E-001	-5.497250324757848E-003	2.000000000000000E+000	-1.2741976E-005	1.9533716E-006
2	0	0	1	1	4.151037895135960E+002	-3.5838580E-001	-3.5860947E-001	-5.548059594063182E-003	2.000000000000000E+000	-1.2778536E-005	1.9895867E-006
2	0	0	1	1	4.151105895134242E+002	-3.6178452E-001	-3.6201748E-001	-5.596218881510129E-003	2.000000000000000E+000	-1.2816544E-005	2.0259290E-006
2	0	0	0	1	4.151171895132575E+002	-3.6508325E-001	-3.6530036E-001	-5.647542153443874E-003	2.000000000000000E+000	-1.2853756E-005	2.0630491E-006
2	0	0	1	1	4.151237895130907E+002	-3.6838201E-001	-3.6860877E-001	-5.696111069907278E-003	2.000000000000000E+000	-1.2891302E-005	2.0996365E-006
2	0	0	1	1	4.151305895129190E+002	-3.7178069E-001	-3.7201810E-001	-5.752533253083430E-003	2.000000000000000E+000	-1.2930339E-005	2.1400465E-006
2	0	0	0	1	4.151371895127522E+002	-3.7507945E-001	-3.7531665E-001	-5.803252003533987E-003	2.000000000000000E+000	-1.2968580E-005	2.1780570E-006
2	0	0	1	1	4.151437895125855E+002	-3.7837824E-001	-3.7860140E-001	-5.850685981992371E-003	2.000000000000000E+000	-1.3007156E-005	2.2150780E-006
2	0	0	1	1	4.151505895124137E+002	-3.8177693E-001	-3.8202038E-001	-5.907552291440259E-003	2.000000000000000E+000	-1.3047248E-005	2.2568054E-006
2	0	0	0	1	4.151571895122470E+002	-3.8507563E-001	-3.8533342E-001	-5.959350438812780E-003	2.000000000000000E+000	-1.3086520E-005	2.2963368E-006
2	0	0	1	1	4.151637895120803E+002	-3.8837439E-001	-3.8861680E-001	-6.007776260109177E-003	2.000000000000000E+000	-1.3126123E-005	2.3347227E-006
2	0	0	1	1	4.151705895119085E+002	-3.9177310E-001	-3.9201951E-001	-6.063901719971891E-003	2.000000000000000E+000	-1.3167282E-005	2.3771677E-006
2	0	0	0	1	4.151771895117417E+002	-3.9507183E-001	-3.9533028E-001	-6.117260850502709E-003	2.000000000000000E+000	-1.3207586E-005	2.4183385E-006
2	0	0	1	1	4.151837895115750E+002	-3.9837059E-001	-3.9863959E-001	-6.169271556063907E-003	2.000000000000000E+000	-1.3248241E-005	2.4593160E-006
2	0	0	1	1	4.151905895114032E+002	-4.0176928E-001	-4.0202630E-001	-6.224591808859235E-003	2.000000000000000E+000	-1.3290494E-005	2.5024497E-006
2	0	0	0	1	4.151971895112365E+002	-4.0506798E-001	-4.0533233E-001	-6.279550662778383E-003	2.000000000000000E+000	-1.3331867E-005	2.5453048E-006
2	0	0	1	1	4.152037895110698E+002	-4.0836677E-001	-4.0859941E-001	-6.331511566834980E-003	2.000000000000000E+000	-1.3373595E-005	2.5870518E-006
2	0	0	1	1	4.152105895108980E+002	-4.1176549E-001	-4.1201025E-001	-6.391937863857783E-003	2.000000000000000E+000	-1.3416967E-005	2.6335440E-006
2	0	0	0	1	4.152171895107313E+002	-4.1506419E-001	-4.1531083E-001	-6.450629053263851E-003	2.000000000000000E+000	-1.3459455E-005	2.6790160E-006
2	0	0	1	1	4.152237895105645E+002	-4.1836298E-001	-4.1861361E-001	-6.511111741686650E-003	2.000000000000000E+000	-1.3502341E-005	2.7256401E-006
2	0	0	1	1	4.152305895103927E+002	-4.2176163E-001	-4.2200905E-001	-6.572796683273430E-003	2.000000000000000E+000	-1.3546936E-005	2.7737797E-006
2	0	0	0	1	4.152371895102260E+002	-4.2506039E-001	-4.2531449E-001	-6.633111131668548E-003	2.000000000000000E+000	-1.3590620E-005	2.8211582E-006
2	0	0	1	1	4.152437895100593E+002	-4.2835918E-001	-4.2857823E-001	-6.693204736560196E-003	2.000000000000000E+000	-1.3634713E-005	2.8685618E-006
2	0	0	1	1	4.152504895098900E+002	-4.3173602E-001	-4.3196526E-001	-6.760531981853977E-003	2.000000000000000E+000	-1.3679894E-005	2.9203150E-006
2	0	0	0	1	4.152571895097208E+002	-4.3508992E-001	-4.3533075E-001	-6.828628273190862E-003	2.000000000000000E+000	-1.3725537E-005	2.9727119E-006
2	0	0	1	1	4.152637895095540E+002	-4.3838865E-001	-4.3862560E-001	-6.893894837169984E-003	2.000000000000000E+000	-1.3770934E-005	3.0238389E-006
2	0	0	0	1	4.152703895093873E+002	-4.4168741E-001	-4.4193441E-001	-6.958213863254042E-003	2.000000000000000E+000	-1.3816763E-005	3.0750741E-006
2	0	0	0	1	4.152771895092155E+002	-4.4508606E-001	-4.4532442E-001	-7.030028234415397E-003	2.000000000000000E+000	-1.3864440E-005	3.1306433E-006
2	0	0	1	1	4.152837895090488E+002	-4.4838485E-001	-4.4861159E-001	-7.100048733385211E-003	2.000000000000000E+000	-1.3911177E-005	3.1851641E-006
2	0	0	0	1	4.152903895088821E+002	-4.5168355E-001	-4.5190999E-001	-7.171372372613390E-003	2.000000000000000E+000	-1.3958383E-005	3.2408147E-006
2	0	0	0	1	4.152971895087103E+002	-4.5508227E-001	-4.5528254E-001	-7.245903050837429E-003	2.000000000000000E+000	-1.4007514E-005	3.2989331E-006
2	0	0	1	1	4.153037895085436E+002	-4.5838106E-001	-4.5860255E-001	-7.322182358620900E-003	2.000000000000000E+000	-1.4055703E-005	3.3579715E-006
2	0	0	0	1	4.153103895083768E+002	-4.6167976E-001	-4.6192613E-001	-7.399219823006786E-003	2.000000000000000E+000	-1.4104399E-005	3.4178929E-006
2	0	0	0	1	4.153171895082050E+002	-4.6507847E-001	-4.6530977E-001	-7.477707409392076E-003	2.000000000000000E+000	-1.4155095E-005	3.4794502E-006
2	0	0	1	1	4.153237895080383E+002	-4.6837723E-001	-4.6865207E-001	-7.557020887179522E-003	2.000000000000000E+000	-1.4204823E-005	3.5416135E-006
2	0	0	0	1	4.153303895078716E+002	-4.7167596E-001	-4.7194675E-001	-7.634418603144396E-003	2.000000000000000E+000	-1.4255073E-005	3.6030390E-006
2	0	0	0	1	4.153371895076998E+002	-4.7507462E-001	-4.7530338E-001	-7.717589277065895E-003	2.000000000000000E+000	-1.4307391E-005	3.6681963E-006
2	0	0	1	1	4.153437895075331E+002	-4.7837341E-001	-4.7861978E-001	-7.803028350099300E-003	2.000000000000000E+000	-1.4358723E-005	3.7346838E-006
2	0	0	0	1	4.153503895073663E+002	-4.8167214E-001	-4.8191878E-001	-7.889195080982347E-003	2.000000000000000E+000	-1.4410624E-005	3.8019514E-006
2	0	0	0	1	4.153571895071946E+002	-4.8507085E-001	-4.8530963E-001	-7.976381356517459E-003	2.000000000000000E+000	-1.4464688E-005	3.8710145E-006
2	0	0	1	1	4.153637895070278E+002	-4.8836961E-001	-4.8862204E-001	-8.063900319151131E-003	2.000000000000000E+000	-1.4517737E-005	3.9401993E-006
2	0	0	0	1	4.153703895068611E+002	-4.9166834E-001	-4.9191985E-001	-8.153047478360015E-003	2.000000000000000E+000	-1.4571373E-005	4.0106461E-006
2	0	0	0	1	4.153771895066893E+002	-4.9506709E-001	-4.9530527E-001	-8.247833070830296E-003	2.000000000000000E+000	-1.4627255E-005	4.0851951E-006
2	0	0	1	1	4.153837895065226E+002	-4.9836579E-001	-4.9860719E-001	-8.342736497434070E-003	2.000000000000000E+000	-1.4682109E-005	4.1597482E-006
2	0	0	0	1	4.153903895063559E+002	-5.0166458E-001	-5.0191742E-001	-8.436167645534880E-003	2.000000000000000E+000	-1.4737598E-005	4.2342594E-006
2	0	0	0	1	4.153971895061841E+002	-5.0506324E-001	-5.0530815E-001	-8.532986101029847E-003	2.000000000000000E+000	-1.4795416E-005	4.3117875E-006
2	0	0	1	1	4.154037895060173E+002	-5.0836200E-001	-5.0861573E-001	-8.632293073727239E-003	2.000000000000000E+000	-1.4852178E-005	4.3905202E-006
2	0	0	0	1	4.154103895058506E+002	-5.1166070E-001	-5.1191062E-001	-8.729669457655589E-003	2.000000000000000E+000	-1.4909589E-005	4.4688104E-006
2	0	0	0	1	4.154171895056788E+002	-5.1505947E-001	-5.1531702E-001	-8.830916906178210E-003	2.000000000000000E+000	-1.4969415E-005	4.5507218E-006
2	0	0	1	1	4.154237895055121E+002	-5.1838040E-001	-5.1863563E-001	-8.936727427256583E-003	2.000000000000000E+000	-1.5028163E-005	4.6349051E-006
2	0	0	0	1	4.154303895053454E+002	-5.2169025E-001	-5.2194852E-001	-9.043215651157274E-003	2.000000000000000E+000	-1.5087615E-005	4.7200929E-006
2	0	0	1	1	4.154369895051786E+002	-5.2498901E-001	-5.2524042E-001	-9.145690304891693E-003	2.000000000000000E+000	-1.5147756E-005	4.8036864E-006
2	0	0	1	1	4.154437895050069E+002	-5.2838767E-001	-5.2862656E-001	-9.254910033996536E-003	2.000000000000000E+000	-1.5210438E-005	4.8923912E-006
2	0	0	0	1	4.154503895048401E+002	-5.3168643E-001	-5.3193748E-001	-9.363459459685437E-003	2.000000000000000E+000	-1.5271991E-005	4.9807750E-006
2	0	0	1	1	4.154569895046734E+002	-5.3498513E-001	-5.3522968E-001	-9.471204349150233E-003	2.000000000000000E+000	-1.5334263E-005	5.0692697E-006
2	0	0	1	1	4.154637895045016E+002	-5.3838384E-001	-5.3861338E-001	-9.590257029049094E-003	2.000000000000000E+000	-1.5399197E-005	5.1654406E-006
2	0	0	0	1	4.154703895043349E+002	-5.4168260E-001	-5.4192770E-001	-9.702912529489053E-003	2.000000000000000E+000	-1.5462980E-005	5.2582768E-006
2	0	0	1	1	4.154769895041682E+002	-5.4498136E-001	-5.4522270E-001	-9.820265835151068E-003	2.000000000000000E+000	-1.5527525E-005	5.3542317E-006
2	0	0	1	1	4.154837895039964E+002	-5.4838002E-001	-5.4862213E-001	-9.940243582726299E-003	2.000000000000000E+000	-1.5594833E-005	5.4534376E-006
2	0	0	0	1	4.154903895038296E+002	-5.5167878E-001	-5.5193561E-001	-1.005844781539051E-002	2.000000000000000E+000	-1.5660940E-005	5.5516157E-006
2	0	0	1	1	4.154969895036629E+002	-5.5497754E-001	-5.5523950E-001	-1.018131652829951E-002	2.000000000000000E+000	-1.5727854E-005	5.6530689E-006
2	0	0	1	1	4.155187895031122E+002	-5.6588727E-001	-5.6611925E-001	-1.058585264373607E-002	2.000000000000000E+000	-1.5953117E-005	5.9928552E-006
2	0	0	0	1	4.155403895025665E+002	-5.7666922E-001	-5.7686692E-001	-1.099436508047802E-002	2.000000000000000E+000	-1.6179192E-005	6.3422854E-006
2	0	0	1	1	4.155469895023998E+002	-5.7996804E-001	-5.8017504E-001	-1.112494681474341E-002	2.000000000000000E+000	-1.6252334E-005	6.4544165E-006
2	0	0	1	1	4.155537895022280E+002	-5.8336675E-001	-5.8357060E-001	-1.126755191483728E-002	2.000000000000000E+000	-1.6328619E-005	6.5754120E-006
2	0	0	0	1	4.155603895020613E+002	-5.8666545E-001	-5.8688599E-001	-1.140695674221204E-002	2.000000000000000E+000	-1.6403588E-005	6.6945831E-006
2	0	0	1	1	4.155669895018946E+002	-5.8996427E-001	-5.9018201E-001	-1.154567205400478E-002	2.000000000000000E+000	-1.6479484E-005	6.8140480E-006
2	0	0	1	1	4.155737895017228E+002	-5.9336287E-001	-5.9360868E-001	-1.169101760460761E-002	2.000000000000000E+000	-1.6558641E-005	6.9398893E-006
2	0	0	0	1	4.155803895015561E+002	-5.9666163E-001	-5.9687507E-001	-1.182783802554091E-002	2.000000000000000E+000	-1.6636399E-005	7.0597416E-006
2	0	0	1	1	4.155849895014399E+002	-5.9896070E-001	-5.9916908E-001	-1.192890605889263E-002	2.000000000000000E+000	-1.6691056E-005	7.1474315E-006
2	0	0	1	1	4.155867895013944E+002	-5.9982693E-001	-6.0003507E-001	-1.196416513994336E-002	2.000000000000000E+000	-1.6712591E-005	7.1789186E-006
2	0	0	0	1	4.155869895013893E+002	-6.0016018E-001	-6.0035938E-001	-1.200173236429691E-002	2.000000000000000E+000	-1.6714992E-005	7.2053526E-006