EC-Lab ASCII FILE
Nb header lines : 53                          

Cyclic Voltammetry

Run on channel : 1 (SN 0696)
User : 
Electrode connection : standard
Ewe ctrl range : min = -10.00 V, max = 10.00 V
Ewe,I filtering : 50 kHz
Channel : Grounded
Acquisition started on : 05/17/2017 12:53:20
Saved on :
	File : 100 uM RS 10mM PB_04_CV_C01.mpr
	Directory : \\userfs\st659\w2k\EC-Lab\Data\ITO Characterisation 17-5-17\
	Host : 144.32.136.43
Device : SP-300 (SN 0182)
Address : USB
EC-Lab for windows v10.44 (software)
Internet server v10.44 (firmware)
Command interpretor v10.44 (firmware)
Electrode material : 
Initial state : 
Electrolyte : 
Comments : 
Cable : standard
Electrode surface area : 0.001 cm²
Characteristic mass : 0.001 g
Equivalent Weight : 0.000 g/eq.
Density : 0.000 g/cm3
Ei (V)              0.000               
vs.                 Eoc                 
dE/dt               250.000             
dE/dt unit          mV/s                
E1 (V)              0.100               
vs.                 Ref                 
Step percent        50                  
N                   10                  
E range min (V)     -10.000             
E range max (V)     10.000              
I Range             Auto                
I Range min         Unset               
I Range max         Unset               
I Range init        Unset               
Bandwidth           8                   
E2 (V)              -0.600              
vs.                 Ref                 
nc cycles           2                   
Reverse Scan        1                   
Ef (V)              0.000               
vs.                 Eoc                 

mode	ox/red	error	control changes	counter inc.	time/s	control/V	Ewe/V	<I>/mA	cycle number	(Q-Qo)/C	P/W
2	1	0	1	1	3.952303900156403E+002	-6.0016018E-001	-6.0034412E-001	-1.166076213121414E-002	2.000000000000000E+000	-1.5123797E-005	7.0004699E-006
2	1	0	0	1	3.952377900154534E+002	-5.9832770E-001	-5.9852511E-001	-1.120659840445212E-002	2.000000000000000E+000	-1.5207030E-005	6.7074307E-006
2	1	0	1	1	3.952511900151148E+002	-5.9497899E-001	-5.9521776E-001	-1.072988947930243E-002	2.000000000000000E+000	-1.5353535E-005	6.3866210E-006
2	1	0	1	1	3.952643900147814E+002	-5.9168023E-001	-5.9189165E-001	-1.040419398624282E-002	2.000000000000000E+000	-1.5492664E-005	6.1581554E-006
2	1	0	0	1	3.952777900144429E+002	-5.8833152E-001	-5.8856702E-001	-1.013226264569514E-002	2.000000000000000E+000	-1.5629921E-005	5.9635158E-006
2	1	0	1	1	3.952911900141044E+002	-5.8498275E-001	-5.8520961E-001	-9.880392834181977E-003	2.000000000000000E+000	-1.5763671E-005	5.7821007E-006
2	1	0	1	1	3.953043900137709E+002	-5.8168405E-001	-5.8189863E-001	-9.648610820699474E-003	2.000000000000000E+000	-1.5892234E-005	5.6145136E-006
2	1	0	0	1	3.953177900134324E+002	-5.7833529E-001	-5.7856929E-001	-9.426828310339849E-003	2.000000000000000E+000	-1.6019714E-005	5.4540733E-006
2	1	0	1	1	3.953311900130939E+002	-5.7498658E-001	-5.7521957E-001	-9.214883614347646E-003	2.000000000000000E+000	-1.6144282E-005	5.3005815E-006
2	1	0	1	1	3.953443900127604E+002	-5.7168782E-001	-5.7192534E-001	-9.010715148340537E-003	2.000000000000000E+000	-1.6264254E-005	5.1534562E-006
2	1	0	0	1	3.953577900124219E+002	-5.6833917E-001	-5.6855917E-001	-8.816475244505725E-003	2.000000000000000E+000	-1.6383379E-005	5.0126878E-006
2	1	0	1	1	3.953711900120834E+002	-5.6499040E-001	-5.6521934E-001	-8.628324501559148E-003	2.000000000000000E+000	-1.6499955E-005	4.8768961E-006
2	1	0	1	1	3.953843900117499E+002	-5.6168056E-001	-5.6189120E-001	-8.440505029446099E-003	2.000000000000000E+000	-1.6612310E-005	4.7426456E-006
2	1	0	0	1	3.953977900114114E+002	-5.5832630E-001	-5.5853939E-001	-8.264549796028073E-003	2.000000000000000E+000	-1.6723929E-005	4.6160767E-006
2	1	0	0	1	3.954109900110780E+002	-5.5502754E-001	-5.5526125E-001	-8.095855020332665E-003	2.000000000000000E+000	-1.6831598E-005	4.4953144E-006
2	1	0	1	1	3.954243900107394E+002	-5.5167878E-001	-5.5189037E-001	-7.922719231969961E-003	2.000000000000000E+000	-1.6938611E-005	4.3724726E-006
2	1	0	0	1	3.954377900104009E+002	-5.4833013E-001	-5.4851294E-001	-7.756760945630992E-003	2.000000000000000E+000	-1.7043354E-005	4.2546835E-006
2	1	0	0	1	3.954509900100675E+002	-5.4503131E-001	-5.4523057E-001	-7.602647457840943E-003	2.000000000000000E+000	-1.7144430E-005	4.1451958E-006
2	1	0	1	1	3.954643900097290E+002	-5.4168266E-001	-5.4187566E-001	-7.447553569363649E-003	2.000000000000000E+000	-1.7244955E-005	4.0356481E-006
2	1	0	0	1	3.954777900093904E+002	-5.3833389E-001	-5.3853273E-001	-7.298067755497566E-003	2.000000000000000E+000	-1.7343449E-005	3.9302486E-006
2	1	0	0	1	3.954909900090570E+002	-5.3503519E-001	-5.3523326E-001	-7.152310764164838E-003	2.000000000000000E+000	-1.7438524E-005	3.8281546E-006
2	1	0	1	1	3.955043900087185E+002	-5.3168643E-001	-5.3189856E-001	-7.011801961602424E-003	2.000000000000000E+000	-1.7533119E-005	3.7295674E-006
2	1	0	0	1	3.955177900083800E+002	-5.2833772E-001	-5.2855170E-001	-6.870746745900935E-003	2.000000000000000E+000	-1.7625835E-005	3.6315448E-006
2	1	0	0	1	3.955309900080465E+002	-5.2503896E-001	-5.2526194E-001	-6.736612381913192E-003	2.000000000000000E+000	-1.7715354E-005	3.5384860E-006
2	1	0	1	1	3.955443900077080E+002	-5.2169031E-001	-5.2190542E-001	-6.601214777401762E-003	2.000000000000000E+000	-1.7804427E-005	3.4452098E-006
2	1	0	0	1	3.955576900073720E+002	-5.1835817E-001	-5.1858056E-001	-6.470400100938273E-003	2.000000000000000E+000	-1.7891056E-005	3.3554236E-006
2	1	0	0	1	3.955709900070360E+002	-5.1502615E-001	-5.1524633E-001	-6.345496391764321E-003	2.000000000000000E+000	-1.7975968E-005	3.2694938E-006
2	1	0	1	1	3.955843900066975E+002	-5.1167738E-001	-5.1190227E-001	-6.221346326876542E-003	2.000000000000000E+000	-1.8059873E-005	3.1847214E-006
2	1	0	1	1	3.955975900063640E+002	-5.0837862E-001	-5.0859952E-001	-6.100694926519476E-003	2.000000000000000E+000	-1.8140901E-005	3.1028105E-006
2	1	0	0	1	3.956109900060255E+002	-5.0502992E-001	-5.0526088E-001	-5.981042698678912E-003	2.000000000000000E+000	-1.8221544E-005	3.0219869E-006
2	1	0	1	1	3.956243900056870E+002	-5.0168121E-001	-5.0192380E-001	-5.863286783480567E-003	2.000000000000000E+000	-1.8300607E-005	2.9429232E-006
2	1	0	1	1	3.956375900053536E+002	-4.9838245E-001	-4.9859262E-001	-5.751102275422061E-003	2.000000000000000E+000	-1.8376968E-005	2.8674572E-006
2	1	0	0	1	3.956509900050150E+002	-4.9503371E-001	-4.9525043E-001	-5.638305191071884E-003	2.000000000000000E+000	-1.8452984E-005	2.7923732E-006
2	1	0	1	1	3.956643900046765E+002	-4.9168503E-001	-4.9191180E-001	-5.527741076043147E-003	2.000000000000000E+000	-1.8527518E-005	2.7191611E-006
2	1	0	1	1	3.956775900043431E+002	-4.8838627E-001	-4.8860636E-001	-5.424410783052738E-003	2.000000000000000E+000	-1.8599518E-005	2.6504017E-006
2	1	0	0	1	3.956909900040046E+002	-4.8503754E-001	-4.8525813E-001	-5.318106363322125E-003	2.000000000000000E+000	-1.8671202E-005	2.5806544E-006
2	1	0	1	1	3.957043900036660E+002	-4.8168883E-001	-4.8191518E-001	-5.214962197290620E-003	2.000000000000000E+000	-1.8741495E-005	2.5131694E-006
2	1	0	1	1	3.957175900033326E+002	-4.7839004E-001	-4.7861969E-001	-5.115538327057339E-003	2.000000000000000E+000	-1.8809400E-005	2.4483975E-006
2	1	0	0	1	3.957309900029941E+002	-4.7503582E-001	-4.7525474E-001	-5.013993332674244E-003	2.000000000000000E+000	-1.8876977E-005	2.3829241E-006
2	1	0	0	1	3.957441900026606E+002	-4.7172597E-001	-4.7195792E-001	-4.922210586321141E-003	2.000000000000000E+000	-1.8942275E-005	2.3230764E-006
2	1	0	1	1	3.957575900023221E+002	-4.6837720E-001	-4.6858793E-001	-4.826322675863714E-003	2.000000000000000E+000	-1.9007299E-005	2.2615566E-006
2	1	0	0	1	3.957709900019836E+002	-4.6502849E-001	-4.6521580E-001	-4.733287799818846E-003	2.000000000000000E+000	-1.9071054E-005	2.2020004E-006
2	1	0	0	1	3.957841900016501E+002	-4.6172976E-001	-4.6193501E-001	-4.642436656104108E-003	2.000000000000000E+000	-1.9132647E-005	2.1445042E-006
2	1	0	1	1	3.957975900013116E+002	-4.5838103E-001	-4.5856592E-001	-4.553177280286036E-003	2.000000000000000E+000	-1.9193976E-005	2.0879320E-006
2	1	0	0	1	3.958262900005866E+002	-4.5120847E-001	-4.5138603E-001	-4.375414939224291E-003	2.000000000000000E+000	-1.9321149E-005	1.9750012E-006
2	1	0	0	1	3.958549899998616E+002	-4.4403654E-001	-4.4426018E-001	-4.206690391947633E-003	2.000000000000000E+000	-1.9445888E-005	1.8688651E-006
2	1	0	0	1	3.958681899995281E+002	-4.4073781E-001	-4.4096303E-001	-4.124869963480791E-003	2.000000000000000E+000	-1.9500618E-005	1.8189152E-006
2	1	0	1	1	3.958815899991896E+002	-4.3738905E-001	-4.3760976E-001	-4.045499823223511E-003	2.000000000000000E+000	-1.9555098E-005	1.7703502E-006
2	1	0	0	1	3.958949899988511E+002	-4.3404031E-001	-4.3425563E-001	-3.965654302818512E-003	2.000000000000000E+000	-1.9608511E-005	1.7221078E-006
2	1	0	0	1	3.959081899985176E+002	-4.3073052E-001	-4.3094134E-001	-3.890054397844414E-003	2.000000000000000E+000	-1.9660099E-005	1.6763853E-006
2	1	0	1	1	3.959215899981791E+002	-4.2737621E-001	-4.2760065E-001	-3.815861299659037E-003	2.000000000000000E+000	-1.9711470E-005	1.6316648E-006
2	1	0	1	1	3.959347899978457E+002	-4.2407745E-001	-4.2429870E-001	-3.744517803695793E-003	2.000000000000000E+000	-1.9761112E-005	1.5887940E-006
2	1	0	0	1	3.959481899975071E+002	-4.2072871E-001	-4.2095301E-001	-3.670834511346276E-003	2.000000000000000E+000	-1.9810532E-005	1.5452488E-006
2	1	0	1	1	3.959615899971686E+002	-4.1738001E-001	-4.1761762E-001	-3.599467825269022E-003	2.000000000000000E+000	-1.9858990E-005	1.5032011E-006
2	1	0	1	1	3.959747899968352E+002	-4.1408125E-001	-4.1429406E-001	-3.529883471977266E-003	2.000000000000000E+000	-1.9905789E-005	1.4624097E-006
2	1	0	0	1	3.959881899964967E+002	-4.1073254E-001	-4.1094929E-001	-3.460645079111480E-003	2.000000000000000E+000	-1.9952358E-005	1.4221497E-006
2	1	0	1	1	3.960015899961581E+002	-4.0738380E-001	-4.0762120E-001	-3.393437471822837E-003	2.000000000000000E+000	-1.9998024E-005	1.3832371E-006
2	1	0	1	1	3.960147899958247E+002	-4.0408510E-001	-4.0430516E-001	-3.327972955169874E-003	2.000000000000000E+000	-2.0042133E-005	1.3455167E-006
2	1	0	0	1	3.960281899954862E+002	-4.0073636E-001	-4.0098336E-001	-3.263244283334639E-003	2.000000000000000E+000	-2.0086034E-005	1.3085066E-006
2	1	0	1	1	3.960415899951477E+002	-3.9738765E-001	-3.9764905E-001	-3.198234973832675E-003	2.000000000000000E+000	-2.0129070E-005	1.2717751E-006
2	1	0	1	1	3.960547899948142E+002	-3.9408886E-001	-3.9432973E-001	-3.134520653798566E-003	2.000000000000000E+000	-2.0170617E-005	1.2360347E-006
2	1	0	0	1	3.960681899944757E+002	-3.9074013E-001	-3.9097089E-001	-3.070650760279618E-003	2.000000000000000E+000	-2.0211930E-005	1.2005351E-006
2	1	0	1	1	3.960814899941397E+002	-3.8740811E-001	-3.8764262E-001	-3.010450869582924E-003	2.000000000000000E+000	-2.0252122E-005	1.1669790E-006
2	1	0	1	1	3.960947899938037E+002	-3.8407606E-001	-3.8431218E-001	-2.949272602775929E-003	2.000000000000000E+000	-2.0291494E-005	1.1334414E-006
2	1	0	0	1	3.961081899934652E+002	-3.8072729E-001	-3.8094801E-001	-2.886632584320786E-003	2.000000000000000E+000	-2.0330341E-005	1.0996570E-006
2	1	0	0	1	3.961213899931317E+002	-3.7742859E-001	-3.7763208E-001	-2.830845407909996E-003	2.000000000000000E+000	-2.0367821E-005	1.0690180E-006
2	1	0	1	1	3.961347899927932E+002	-3.7407985E-001	-3.7429434E-001	-2.772580737220989E-003	2.000000000000000E+000	-2.0405105E-005	1.0377613E-006
2	1	0	0	1	3.961481899924547E+002	-3.7073115E-001	-3.7091216E-001	-2.714051253658707E-003	2.000000000000000E+000	-2.0441610E-005	1.0066747E-006
2	1	0	0	1	3.961613899921213E+002	-3.6743245E-001	-3.6762360E-001	-2.658285878331097E-003	2.000000000000000E+000	-2.0476815E-005	9.7724865E-007
2	1	0	1	1	3.961747899917827E+002	-3.6408368E-001	-3.6429211E-001	-2.602973530105780E-003	2.000000000000000E+000	-2.0511809E-005	9.4824276E-007
2	1	0	0	1	3.961881899914442E+002	-3.6073494E-001	-3.6095116E-001	-2.549043273372971E-003	2.000000000000000E+000	-2.0546069E-005	9.2008014E-007
2	1	0	0	1	3.962013899911108E+002	-3.5743621E-001	-3.5766140E-001	-2.493114954945159E-003	2.000000000000000E+000	-2.0579093E-005	8.9169100E-007
2	1	0	1	1	3.962147899907723E+002	-3.5408747E-001	-3.5432407E-001	-2.439426946936381E-003	2.000000000000000E+000	-2.0611888E-005	8.6434767E-007
2	1	0	0	1	3.962281899904337E+002	-3.5073873E-001	-3.5097286E-001	-2.384731330544629E-003	2.000000000000000E+000	-2.0643954E-005	8.3697597E-007
2	1	0	0	1	3.962413899901003E+002	-3.4744000E-001	-3.4764609E-001	-2.329733743873574E-003	2.000000000000000E+000	-2.0674817E-005	8.0992282E-007
2	1	0	1	1	3.962547899897618E+002	-3.4409127E-001	-3.4431374E-001	-2.279117711522200E-003	2.000000000000000E+000	-2.0705440E-005	7.8473153E-007
2	1	0	1	1	3.962679899894283E+002	-3.4077585E-001	-3.4099847E-001	-2.224701400144909E-003	2.000000000000000E+000	-2.0734908E-005	7.5861976E-007
2	1	0	0	1	3.962813899890898E+002	-3.3742717E-001	-3.3760887E-001	-2.170184329032862E-003	2.000000000000000E+000	-2.0764091E-005	7.3267347E-007
2	1	0	1	1	3.962947899887513E+002	-3.3407843E-001	-3.3427590E-001	-2.120462455079380E-003	2.000000000000000E+000	-2.0792582E-005	7.0881947E-007
2	1	0	1	1	3.963079899884178E+002	-3.3077970E-001	-3.3096603E-001	-2.068783604449386E-003	2.000000000000000E+000	-2.0819980E-005	6.8469711E-007
2	1	0	0	1	3.963213899880793E+002	-3.2743096E-001	-3.2760724E-001	-2.016811935199155E-003	2.000000000000000E+000	-2.0847097E-005	6.6072221E-007
2	1	0	1	1	3.963347899877408E+002	-3.2408220E-001	-3.2427344E-001	-1.967777003564042E-003	2.000000000000000E+000	-2.0873538E-005	6.3809779E-007
2	1	0	1	1	3.963479899874073E+002	-3.2078347E-001	-3.2095927E-001	-1.916959203986653E-003	2.000000000000000E+000	-2.0898930E-005	6.1526583E-007
2	1	0	0	1	3.963613899870688E+002	-3.1743476E-001	-3.1763026E-001	-1.868684160035630E-003	2.000000000000000E+000	-2.0924039E-005	5.9355062E-007
2	1	0	1	1	3.963747899867303E+002	-3.1408605E-001	-3.1426078E-001	-1.817037452322732E-003	2.000000000000000E+000	-2.0948481E-005	5.7102363E-007
2	1	0	1	1	3.963879899863969E+002	-3.1078729E-001	-3.1097272E-001	-1.767571454143356E-003	2.000000000000000E+000	-2.0971889E-005	5.4966648E-007
2	1	0	0	1	3.964013899860583E+002	-3.0743858E-001	-3.0763322E-001	-1.717851794698314E-003	2.000000000000000E+000	-2.0994983E-005	5.2846826E-007
2	1	0	1	1	3.964147899857198E+002	-3.0408984E-001	-3.0428687E-001	-1.667781096805095E-003	2.000000000000000E+000	-2.1017411E-005	5.0748389E-007
2	1	0	1	1	3.964279899853864E+002	-3.0079111E-001	-3.0096450E-001	-1.619379107847228E-003	2.000000000000000E+000	-2.1038857E-005	4.8737564E-007
2	1	0	0	1	3.964413899850479E+002	-2.9742572E-001	-2.9761159E-001	-1.568433891543465E-003	2.000000000000000E+000	-2.1059957E-005	4.6678412E-007
2	1	0	0	1	3.964545899847144E+002	-2.9412699E-001	-2.9427493E-001	-1.518090789639041E-003	2.000000000000000E+000	-2.1080072E-005	4.4673607E-007
2	1	0	1	1	3.964679899843759E+002	-2.9077825E-001	-2.9093087E-001	-1.473005903466797E-003	2.000000000000000E+000	-2.1099851E-005	4.2854288E-007
2	1	0	0	1	3.964813899840374E+002	-2.8742954E-001	-2.8758666E-001	-1.423387870798050E-003	2.000000000000000E+000	-2.1119000E-005	4.0934736E-007
2	1	0	0	1	3.964945899837039E+002	-2.8413081E-001	-2.8428456E-001	-1.373804434388150E-003	2.000000000000000E+000	-2.1137208E-005	3.9055138E-007
2	1	0	1	1	3.965079899833654E+002	-2.8078207E-001	-2.8095335E-001	-1.327238280919117E-003	2.000000000000000E+000	-2.1155049E-005	3.7289203E-007
2	1	0	0	1	3.965213899830269E+002	-2.7743337E-001	-2.7758777E-001	-1.279123517901500E-003	2.000000000000000E+000	-2.1172258E-005	3.5506903E-007
2	1	0	0	1	3.965345899826934E+002	-2.7413461E-001	-2.7431631E-001	-1.233347566580454E-003	2.000000000000000E+000	-2.1188594E-005	3.3832737E-007
2	1	0	1	1	3.965479899823549E+002	-2.7078590E-001	-2.7095073E-001	-1.184397978840930E-003	2.000000000000000E+000	-2.1204534E-005	3.2091350E-007
2	1	0	0	1	3.965613899820164E+002	-2.6743716E-001	-2.6762316E-001	-1.137343564096220E-003	2.000000000000000E+000	-2.1219836E-005	3.0437948E-007
2	1	0	0	1	3.965745899816829E+002	-2.6413840E-001	-2.6431322E-001	-1.089751847676880E-003	2.000000000000000E+000	-2.1234284E-005	2.8803581E-007
2	1	0	1	1	3.965879899813444E+002	-2.6078969E-001	-2.6094165E-001	-1.044505026725848E-003	2.000000000000000E+000	-2.1248325E-005	2.7255487E-007
2	1	0	0	1	3.966013899810059E+002	-2.5744095E-001	-2.5762677E-001	-9.986144617970295E-004	2.000000000000000E+000	-2.1261765E-005	2.5726982E-007
2	1	0	0	1	3.966145899806725E+002	-2.5412557E-001	-2.5431845E-001	-9.527928536853247E-004	2.000000000000000E+000	-2.1274398E-005	2.4231281E-007
2	1	0	1	1	3.966279899803340E+002	-2.5077686E-001	-2.5096029E-001	-9.075812386527091E-004	2.000000000000000E+000	-2.1286618E-005	2.2776685E-007
2	1	0	1	1	3.966411899800005E+002	-2.4747810E-001	-2.4765892E-001	-8.661516204433103E-004	2.000000000000000E+000	-2.1298081E-005	2.1451018E-007
2	1	0	0	1	3.966545899796620E+002	-2.4412939E-001	-2.4431559E-001	-8.217280009123196E-004	2.000000000000000E+000	-2.1309137E-005	2.0076097E-007
2	1	0	1	1	3.966679899793235E+002	-2.4078067E-001	-2.4095428E-001	-7.792295548698413E-004	2.000000000000000E+000	-2.1319614E-005	1.8775870E-007
2	1	0	1	1	3.966811899789900E+002	-2.3748189E-001	-2.3765559E-001	-7.409102919180214E-004	2.000000000000000E+000	-2.1329401E-005	1.7608147E-007
2	1	0	0	1	3.966945899786515E+002	-2.3413317E-001	-2.3430865E-001	-7.005845467549249E-004	2.000000000000000E+000	-2.1338810E-005	1.6415302E-007
2	1	0	1	1	3.967079899783130E+002	-2.3078446E-001	-2.3096357E-001	-6.632593299046793E-004	2.000000000000000E+000	-2.1347701E-005	1.5318875E-007
2	1	0	1	1	3.967211899779795E+002	-2.2748575E-001	-2.2769181E-001	-6.273085140845857E-004	2.000000000000000E+000	-2.1355967E-005	1.4283302E-007
2	1	0	0	1	3.967345899776410E+002	-2.2413701E-001	-2.2431929E-001	-5.901897038155658E-004	2.000000000000000E+000	-2.1363870E-005	1.3239094E-007
2	1	0	1	1	3.967479899773025E+002	-2.2078829E-001	-2.2096477E-001	-5.539050168610823E-004	2.000000000000000E+000	-2.1371286E-005	1.2239350E-007
2	1	0	1	1	3.967611899769690E+002	-2.1748957E-001	-2.1767561E-001	-5.209848700739412E-004	2.000000000000000E+000	-2.1378135E-005	1.1340570E-007
2	1	0	0	1	3.967745899766305E+002	-2.1414082E-001	-2.1433210E-001	-4.893576761257129E-004	2.000000000000000E+000	-2.1384656E-005	1.0488506E-007
2	1	0	1	1	3.967878899762945E+002	-2.1080311E-001	-2.1098031E-001	-4.549194150418301E-004	2.000000000000000E+000	-2.1390690E-005	9.5979040E-008
2	1	0	1	1	3.968011899759586E+002	-2.0747671E-001	-2.0765421E-001	-4.251023320269555E-004	2.000000000000000E+000	-2.1396287E-005	8.8274291E-008
2	1	0	0	1	3.968145899756200E+002	-2.0412795E-001	-2.0429732E-001	-3.968862133332425E-004	2.000000000000000E+000	-2.1401551E-005	8.1082788E-008
2	1	0	0	1	3.968277899752866E+002	-2.0082921E-001	-2.0099150E-001	-3.688290424735076E-004	2.000000000000000E+000	-2.1406360E-005	7.4131499E-008
2	1	0	1	1	3.968411899749481E+002	-1.9748048E-001	-1.9764914E-001	-3.408864687180029E-004	2.000000000000000E+000	-2.1410862E-005	6.7375915E-008
2	1	0	1	1	3.968851899738365E+002	-1.8648471E-001	-1.8663220E-001	-2.501399698669759E-004	2.000000000000000E+000	-2.1423602E-005	4.6684175E-008
2	1	0	0	1	3.968985899734980E+002	-1.8313596E-001	-1.8327717E-001	-2.271864037462971E-004	2.000000000000000E+000	-2.1426729E-005	4.1638081E-008
2	1	0	0	1	3.969117899731646E+002	-1.7983724E-001	-1.7997754E-001	-2.047796495023443E-004	2.000000000000000E+000	-2.1429511E-005	3.6855738E-008
2	1	0	1	1	3.969251899728260E+002	-1.7648849E-001	-1.7661926E-001	-1.820001416724107E-004	2.000000000000000E+000	-2.1432023E-005	3.2144730E-008
2	1	0	0	1	3.969385899724875E+002	-1.7313978E-001	-1.7329104E-001	-1.627158419751145E-004	2.000000000000000E+000	-2.1434260E-005	2.8197197E-008
2	1	0	0	1	3.969517899721541E+002	-1.6984104E-001	-1.6998324E-001	-1.417480518973154E-004	2.000000000000000E+000	-2.1436195E-005	2.4094794E-008
2	1	0	1	1	3.969651899718156E+002	-1.6647565E-001	-1.6662222E-001	-1.193824569358838E-004	2.000000000000000E+000	-2.1437871E-005	1.9891770E-008
2	1	0	1	1	3.969783899714821E+002	-1.6317691E-001	-1.6330726E-001	-1.028284348140889E-004	2.000000000000000E+000	-2.1439269E-005	1.6792630E-008
2	1	0	0	1	3.969917899711436E+002	-1.5982819E-001	-1.5997013E-001	-8.400874703890339E-005	2.000000000000000E+000	-2.1440448E-005	1.3438891E-008
2	1	0	1	1	3.970051899708051E+002	-1.5647948E-001	-1.5658528E-001	-6.535097549039554E-005	2.000000000000000E+000	-2.1441376E-005	1.0233000E-008
2	1	0	1	1	3.970183899704716E+002	-1.5318073E-001	-1.5330343E-001	-4.875419035275583E-005	2.000000000000000E+000	-2.1442062E-005	7.4741848E-009
2	1	0	0	1	3.970317899701331E+002	-1.4983200E-001	-1.4995660E-001	-3.182613838959014E-005	2.000000000000000E+000	-2.1442527E-005	4.7725393E-009
2	1	0	1	1	3.970451899697946E+002	-1.4648327E-001	-1.4661728E-001	-1.685227084335692E-005	2.000000000000000E+000	-2.1442782E-005	2.4708340E-009
2	1	0	1	1	3.970583899694611E+002	-1.4318454E-001	-1.4330868E-001	-1.154886020504606E-006	2.000000000000000E+000	-2.1442831E-005	1.6550519E-010
2	1	0	0	1	3.970717899691226E+002	-1.3983580E-001	-1.3998488E-001	1.462999791140222E-005	2.000000000000000E+000	-2.1442667E-005	2.0479785E-009
2	1	0	1	1	3.970851899687841E+002	-1.3648708E-001	-1.3661526E-001	3.079105200869654E-005	2.000000000000000E+000	-2.1442291E-005	4.2065276E-009
2	1	0	1	1	3.970983899684506E+002	-1.3318835E-001	-1.3328938E-001	4.443143866710557E-005	2.000000000000000E+000	-2.1441727E-005	5.9222391E-009
2	1	0	0	1	3.971117899681121E+002	-1.2983961E-001	-1.2996615E-001	5.765101299617627E-005	2.000000000000000E+000	-2.1440972E-005	7.4926803E-009
2	1	0	1	1	3.971251899677736E+002	-1.2649091E-001	-1.2662077E-001	7.315300872505747E-005	2.000000000000000E+000	-2.1440028E-005	9.2626902E-009
2	1	0	1	1	3.971383899674402E+002	-1.2317549E-001	-1.2326889E-001	8.747185798243769E-005	2.000000000000000E+000	-2.1438897E-005	1.0782559E-008
2	1	0	0	1	3.971517899671016E+002	-1.1982676E-001	-1.1993450E-001	9.764447180708044E-005	2.000000000000000E+000	-2.1437587E-005	1.1710941E-008
2	1	0	0	1	3.971649899667682E+002	-1.1652802E-001	-1.1662915E-001	1.086721400232216E-004	2.000000000000000E+000	-2.1436155E-005	1.2674339E-008
2	1	0	1	1	3.971783899664297E+002	-1.1317930E-001	-1.1328516E-001	1.206408290916746E-004	2.000000000000000E+000	-2.1434545E-005	1.3666816E-008
2	1	0	0	1	3.971917899660912E+002	-1.0983058E-001	-1.0993557E-001	1.294455302962027E-004	2.000000000000000E+000	-2.1432801E-005	1.4230669E-008
2	1	0	0	1	3.972049899657577E+002	-1.0653184E-001	-1.0664517E-001	1.397270964945268E-004	2.000000000000000E+000	-2.1430958E-005	1.4901220E-008
2	1	0	1	1	3.972183899654192E+002	-1.0318312E-001	-1.0329578E-001	1.487573280169528E-004	2.000000000000000E+000	-2.1428956E-005	1.5366004E-008
2	1	0	0	1	3.972317899650807E+002	-9.9834383E-002	-9.9937066E-002	1.574721952421342E-004	2.000000000000000E+000	-2.1426835E-005	1.5737310E-008
2	1	0	0	1	3.972449899647472E+002	-9.6535645E-002	-9.6648850E-002	1.659105140668598E-004	2.000000000000000E+000	-2.1424632E-005	1.6035060E-008
2	1	0	1	1	3.972583899644087E+002	-9.3186922E-002	-9.3300879E-002	1.750998048616265E-004	2.000000000000000E+000	-2.1422276E-005	1.6336966E-008
2	1	0	0	1	3.972717899640702E+002	-8.9838192E-002	-8.9945257E-002	1.816961130638600E-004	2.000000000000000E+000	-2.1419815E-005	1.6342703E-008
2	1	0	0	1	3.972849899637367E+002	-8.6539462E-002	-8.6661562E-002	1.882577508107864E-004	2.000000000000000E+000	-2.1417309E-005	1.6314711E-008
2	1	0	1	1	3.972983899633982E+002	-8.3190732E-002	-8.3308801E-002	1.936615966776070E-004	2.000000000000000E+000	-2.1414675E-005	1.6133715E-008
2	1	0	0	1	3.973116899630622E+002	-7.9853021E-002	-7.9972453E-002	2.033998586571184E-004	2.000000000000000E+000	-2.1411970E-005	1.6266386E-008
2	1	0	0	1	3.973249899627262E+002	-7.6526605E-002	-7.6652966E-002	2.085448262240191E-004	2.000000000000000E+000	-2.1409161E-005	1.5985579E-008
2	1	0	1	1	3.973383899623877E+002	-7.3177889E-002	-7.3296994E-002	2.145302901163230E-004	2.000000000000000E+000	-2.1406258E-005	1.5724426E-008
2	1	0	1	1	3.973515899620543E+002	-6.9879144E-002	-6.9980949E-002	2.203819090014908E-004	2.000000000000000E+000	-2.1403321E-005	1.5422534E-008
2	1	0	0	1	3.973649899617158E+002	-6.6530421E-002	-6.6648223E-002	2.242865319847940E-004	2.000000000000000E+000	-2.1400268E-005	1.4948299E-008
2	1	0	1	1	3.973783899613773E+002	-6.3181698E-002	-6.3300900E-002	2.280388636639440E-004	2.000000000000000E+000	-2.1397169E-005	1.4435066E-008
2	1	0	1	1	3.973915899610438E+002	-5.9882954E-002	-6.0022250E-002	2.341913132201828E-004	2.000000000000000E+000	-2.1394053E-005	1.4056689E-008
2	1	0	0	1	3.974049899607053E+002	-5.6534227E-002	-5.6663193E-002	2.376122073302319E-004	2.000000000000000E+000	-2.1390817E-005	1.3463866E-008
2	1	0	1	1	3.974183899603668E+002	-5.3185508E-002	-5.3315960E-002	2.430540120169815E-004	2.000000000000000E+000	-2.1387528E-005	1.2958658E-008
2	1	0	1	1	3.974315899600333E+002	-4.9886763E-002	-5.0006501E-002	2.488250582284007E-004	2.000000000000000E+000	-2.1384216E-005	1.2442871E-008
2	1	0	0	1	3.974449899596948E+002	-4.6538044E-002	-4.6650019E-002	2.517467016559748E-004	2.000000000000000E+000	-2.1380789E-005	1.1743988E-008
2	1	0	1	1	3.974583899593563E+002	-4.3189317E-002	-4.3319255E-002	2.566855747608721E-004	2.000000000000000E+000	-2.1377313E-005	1.1119428E-008
2	1	0	1	1	3.974715899590228E+002	-3.9890572E-002	-3.9992753E-002	2.627303857126312E-004	2.000000000000000E+000	-2.1373820E-005	1.0507311E-008
2	1	0	0	1	3.974849899586843E+002	-3.6530744E-002	-3.6643844E-002	2.669068258392649E-004	2.000000000000000E+000	-2.1370201E-005	9.7804920E-009
2	1	0	0	1	3.974981899583508E+002	-3.3226449E-002	-3.3341158E-002	2.697044649304790E-004	2.000000000000000E+000	-2.1366595E-005	8.9922594E-009
2	1	0	1	1	3.975115899580123E+002	-2.9877724E-002	-2.9988011E-002	2.754292893124930E-004	2.000000000000000E+000	-2.1362870E-005	8.2595770E-009
2	1	0	0	1	3.975249899576738E+002	-2.6529001E-002	-2.6631372E-002	2.782396660361676E-004	2.000000000000000E+000	-2.1359096E-005	7.4099042E-009
2	1	0	0	1	3.975381899573404E+002	-2.3230260E-002	-2.3345921E-002	2.817261855916006E-004	2.000000000000000E+000	-2.1355338E-005	6.5771575E-009
2	1	0	1	1	3.975515899570019E+002	-1.9881535E-002	-2.0005492E-002	2.846993750267759E-004	2.000000000000000E+000	-2.1351467E-005	5.6955511E-009
2	1	0	0	1	3.975649899566633E+002	-1.6532812E-002	-1.6657371E-002	2.906416197295899E-004	2.000000000000000E+000	-2.1347541E-005	4.8413251E-009
2	1	0	0	1	3.975781899563299E+002	-1.3234071E-002	-1.3349376E-002	2.940327411970941E-004	2.000000000000000E+000	-2.1343620E-005	3.9251535E-009
2	1	0	1	1	3.975915899559914E+002	-9.8853465E-003	-1.0029682E-002	2.996520770340004E-004	2.000000000000000E+000	-2.1339569E-005	3.0054150E-009
2	1	0	0	1	3.976049899556529E+002	-6.5366230E-003	-6.6481442E-003	3.045493584219617E-004	2.000000000000000E+000	-2.1335454E-005	2.0246880E-009
2	1	0	0	1	3.976181899553194E+002	-3.2378808E-003	-3.3685099E-003	3.071673239092990E-004	2.000000000000000E+000	-2.1331349E-005	1.0346962E-009
2	1	0	1	1	3.976315899549809E+002	1.2292399E-004	-1.2758695E-005	3.125944619872219E-004	2.000000000000000E+000	-2.1327121E-005	3.9882975E-012
2	1	0	0	1	3.976449899546424E+002	3.4595644E-003	3.3765354E-003	3.208054952198041E-004	2.000000000000000E+000	-2.1322803E-005	1.0832111E-009
2	1	0	0	1	3.976581899543089E+002	6.7694127E-003	6.6882805E-003	3.244152573074633E-004	2.000000000000000E+000	-2.1318478E-005	2.1697801E-009
2	1	0	1	1	3.976715899539704E+002	1.0123688E-002	1.0041869E-002	3.298212739019212E-004	2.000000000000000E+000	-2.1314025E-005	3.3120222E-009
2	1	0	1	1	3.976847899536369E+002	1.3422429E-002	1.3346587E-002	3.340979432765491E-004	2.000000000000000E+000	-2.1309581E-005	4.4590673E-009
2	1	0	0	1	3.976981899532984E+002	1.6771149E-002	1.6706534E-002	3.379028166237853E-004	2.000000000000000E+000	-2.1305003E-005	5.6451848E-009
2	1	0	1	1	3.977115899529599E+002	2.0119872E-002	2.0055830E-002	3.434802213834916E-004	2.000000000000000E+000	-2.1300370E-005	6.8887811E-009
2	1	0	1	1	3.977247899526265E+002	2.3418613E-002	2.3353428E-002	3.471927822096825E-004	2.000000000000000E+000	-2.1295744E-005	8.1081417E-009
2	1	0	0	1	3.977381899522879E+002	2.6767336E-002	2.6685743E-002	3.535676103650883E-004	2.000000000000000E+000	-2.1290974E-005	9.4352144E-009
2	1	0	1	1	3.977515899519494E+002	3.0116057E-002	3.0035010E-002	3.588886156484885E-004	2.000000000000000E+000	-2.1286134E-005	1.0779223E-008
2	1	0	1	1	3.977647899516160E+002	3.3414800E-002	3.3343032E-002	3.651979252910884E-004	2.000000000000000E+000	-2.1281290E-005	1.2176806E-008
2	1	0	0	1	3.977781899512775E+002	3.6763523E-002	3.6690008E-002	3.718365643155474E-004	2.000000000000000E+000	-2.1276277E-005	1.3642686E-008
2	1	0	1	1	3.977915899509389E+002	4.0112246E-002	4.0027317E-002	3.759396833705373E-004	2.000000000000000E+000	-2.1271200E-005	1.5047856E-008
2	1	0	1	1	3.978047899506055E+002	4.3410983E-002	4.3348126E-002	3.825257719717624E-004	2.000000000000000E+000	-2.1266127E-005	1.6581776E-008
2	1	0	0	1	3.978181899502670E+002	4.6759699E-002	4.6705492E-002	3.907900561898724E-004	2.000000000000000E+000	-2.1260870E-005	1.8252042E-008
2	1	0	1	1	3.978314899499310E+002	5.0091766E-002	5.0033074E-002	3.951788954653437E-004	2.000000000000000E+000	-2.1255577E-005	1.9772015E-008
2	1	0	1	1	3.978447899495950E+002	5.3423826E-002	5.3370666E-002	4.018772090628566E-004	2.000000000000000E+000	-2.1250202E-005	2.1448454E-008
2	1	0	0	1	3.978581899492565E+002	5.6772552E-002	5.6743208E-002	4.092774675048825E-004	2.000000000000000E+000	-2.1244698E-005	2.3223716E-008
2	1	0	0	1	3.978713899489230E+002	6.0071290E-002	6.0020484E-002	4.138968875572083E-004	2.000000000000000E+000	-2.1239199E-005	2.4842292E-008
2	1	0	1	1	3.978847899485845E+002	6.3420013E-002	6.3368253E-002	4.213044571467141E-004	2.000000000000000E+000	-2.1233529E-005	2.6697327E-008
2	1	0	0	1	3.978981899482460E+002	6.6768736E-002	6.6699170E-002	4.259984942639977E-004	2.000000000000000E+000	-2.1227783E-005	2.8413746E-008
2	1	0	0	1	3.979113899479125E+002	7.0067473E-002	7.0016317E-002	4.345470247547692E-004	2.000000000000000E+000	-2.1222033E-005	3.0425383E-008
2	1	0	1	1	3.979247899475740E+002	7.3416203E-002	7.3363781E-002	4.417902250957511E-004	2.000000000000000E+000	-2.1216092E-005	3.2411400E-008
2	1	0	0	1	3.979381899472355E+002	7.6764919E-002	7.6696128E-002	4.494821862307524E-004	2.000000000000000E+000	-2.1210053E-005	3.4473544E-008
2	1	0	0	1	3.979513899469021E+002	8.0063663E-002	8.0006532E-002	4.559052882364611E-004	2.000000000000000E+000	-2.1204009E-005	3.6475402E-008
2	1	0	1	1	3.979647899465635E+002	8.3412379E-002	8.3346792E-002	4.618635144829093E-004	2.000000000000000E+000	-2.1197789E-005	3.8494843E-008
2	1	0	0	1	3.979781899462250E+002	8.6761095E-002	8.6688787E-002	4.694911783821654E-004	2.000000000000000E+000	-2.1191478E-005	4.0699621E-008
2	1	0	0	1	3.979913899458916E+002	9.0059839E-002	9.0001546E-002	4.784921911222140E-004	2.000000000000000E+000	-2.1185153E-005	4.3065036E-008
2	1	0	1	1	3.980047899455531E+002	9.3414120E-002	9.3352437E-002	4.859395096547025E-004	2.000000000000000E+000	-2.1178619E-005	4.5363638E-008
2	1	0	1	1	3.980179899452196E+002	9.6723959E-002	9.6667044E-002	4.946432787973120E-004	2.000000000000000E+000	-2.1172082E-005	4.7815703E-008
2	1	0	0	1	3.980273899449821E+002	9.9073090E-002	9.9019542E-002	5.009898010257538E-004	2.000000000000000E+000	-2.1167360E-005	4.9607781E-008
2	0	0	1	1	3.980311899448861E+002	9.9906117E-002	9.9806957E-002	4.904428089503188E-004	2.000000000000000E+000	-2.1165450E-005	4.8949605E-008
2	0	0	0	1	3.980385899446992E+002	9.8056793E-002	9.7921796E-002	6.542500852603841E-005	2.000000000000000E+000	-2.1164600E-005	6.4065344E-009
2	0	0	0	1	3.980517899443657E+002	9.4752498E-002	9.4570026E-002	-2.208995984138555E-004	2.000000000000000E+000	-2.1165850E-005	2.0890480E-008
2	0	0	1	1	3.980651899440272E+002	9.1392674E-002	9.1213733E-002	-3.324678078936607E-004	2.000000000000000E+000	-2.1169677E-005	3.0325630E-008
2	0	0	1	1	3.980937899433047E+002	8.4257856E-002	8.4107079E-002	-4.612245950450424E-004	2.000000000000000E+000	-2.1181524E-005	3.8792255E-008
2	0	0	1	1	3.981223899425822E+002	7.7098131E-002	7.6973125E-002	-5.652255346022782E-004	2.000000000000000E+000	-2.1195063E-005	4.3507175E-008
2	0	0	0	1	3.981357899422437E+002	7.3749408E-002	7.3612601E-002	-6.082985645257891E-004	2.000000000000000E+000	-2.1203186E-005	4.4778439E-008
2	0	0	1	1	3.981491899419052E+002	7.0400678E-002	7.0274726E-002	-6.497003191877106E-004	2.000000000000000E+000	-2.1211867E-005	4.5657512E-008
2	0	0	1	1	3.981623899415717E+002	6.7101941E-002	6.6974901E-002	-6.885975249765058E-004	2.000000000000000E+000	-2.1220947E-005	4.6118750E-008
2	0	0	0	1	3.981757899412332E+002	6.3753217E-002	6.3647896E-002	-7.248385163898590E-004	2.000000000000000E+000	-2.1230673E-005	4.6134446E-008
2	0	0	1	1	3.981891899408947E+002	6.0404502E-002	6.0287092E-002	-7.610143729001092E-004	2.000000000000000E+000	-2.1240876E-005	4.5879343E-008
2	0	0	1	1	3.982023899405613E+002	5.7105757E-002	5.6993783E-002	-7.961989068033079E-004	2.000000000000000E+000	-2.1251401E-005	4.5378389E-008
2	0	0	0	1	3.982157899402227E+002	5.3757031E-002	5.3635713E-002	-8.308452572337978E-004	2.000000000000000E+000	-2.1262555E-005	4.4562977E-008
2	0	0	1	1	3.982290899398868E+002	5.0424971E-002	5.0303485E-002	-8.646707597750863E-004	2.000000000000000E+000	-2.1274074E-005	4.3495952E-008
2	0	0	1	1	3.982423899395508E+002	4.7092907E-002	4.6974473E-002	-8.949333144755659E-004	2.000000000000000E+000	-2.1286021E-005	4.2039019E-008
2	0	0	0	1	3.982557899392123E+002	4.3744188E-002	4.3600384E-002	-9.288296292349185E-004	2.000000000000000E+000	-2.1298489E-005	4.0497330E-008
2	0	0	0	1	3.982689899388788E+002	4.0445447E-002	4.0292934E-002	-9.565926289016903E-004	2.000000000000000E+000	-2.1311180E-005	3.8543924E-008
2	0	0	1	1	3.982823899385403E+002	3.7096728E-002	3.6962971E-002	-9.854554776868290E-004	2.000000000000000E+000	-2.1324442E-005	3.6425362E-008
2	0	0	0	1	3.982957899382018E+002	3.3748005E-002	3.3597205E-002	-1.017247922199102E-003	2.000000000000000E+000	-2.1338103E-005	3.4176686E-008
2	0	0	0	1	3.983089899378683E+002	3.0449264E-002	3.0301007E-002	-1.044618328579519E-003	2.000000000000000E+000	-2.1351958E-005	3.1652988E-008
2	0	0	1	1	3.983223899375298E+002	2.7100541E-002	2.6951997E-002	-1.071670094905939E-003	2.000000000000000E+000	-2.1366388E-005	2.8883649E-008
2	0	0	0	1	3.983357899371913E+002	2.3751818E-002	2.3601428E-002	-1.101198109816123E-003	2.000000000000000E+000	-2.1381189E-005	2.5989847E-008
2	0	0	0	1	3.983489899368578E+002	2.0453079E-002	2.0328281E-002	-1.125999178490628E-003	2.000000000000000E+000	-2.1396128E-005	2.2889628E-008
2	0	0	1	1	3.983623899365193E+002	1.7104356E-002	1.6976984E-002	-1.153530888551461E-003	2.000000000000000E+000	-2.1411654E-005	1.9583476E-008
2	0	0	0	1	3.983757899361808E+002	1.3755634E-002	1.3623587E-002	-1.181160253791960E-003	2.000000000000000E+000	-2.1427539E-005	1.6091640E-008
2	0	0	0	1	3.983889899358473E+002	1.0456894E-002	1.0322270E-002	-1.207743056359808E-003	2.000000000000000E+000	-2.1443553E-005	1.2466650E-008
2	0	0	1	1	3.984023899355088E+002	7.1026189E-003	6.9392710E-003	-1.235042714946153E-003	2.000000000000000E+000	-2.1460162E-005	8.5702965E-009
2	0	0	1	1	3.984155899351754E+002	3.7927707E-003	3.6491458E-003	-1.259550806586656E-003	2.000000000000000E+000	-2.1476861E-005	4.5962847E-009
2	0	0	0	1	3.984289899348369E+002	4.4404870E-004	2.6576640E-004	-1.287643957569647E-003	2.000000000000000E+000	-2.1494174E-005	3.4221251E-010
2	0	0	1	1	3.984423899344984E+002	-2.9046743E-003	-3.0881725E-003	-1.310544169751262E-003	2.000000000000000E+000	-2.1511823E-005	4.0471866E-009
2	0	0	1	1	3.984555899341649E+002	-6.2034172E-003	-6.3820188E-003	-1.333790438502541E-003	2.000000000000000E+000	-2.1529519E-005	8.5122753E-009
2	0	0	0	1	3.984689899338264E+002	-9.5521398E-003	-9.7289309E-003	-1.359163734039416E-003	2.000000000000000E+000	-2.1547810E-005	1.3223210E-008
2	0	0	1	1	3.984823899334879E+002	-1.2900865E-002	-1.3094953E-002	-1.384102487938637E-003	2.000000000000000E+000	-2.1566440E-005	1.8124757E-008
2	0	0	1	1	3.984955899331544E+002	-1.6199604E-002	-1.6372679E-002	-1.406629627222680E-003	2.000000000000000E+000	-2.1585101E-005	2.3030296E-008
2	0	0	0	1	3.985089899328159E+002	-1.9548329E-002	-1.9730303E-002	-1.430139638963128E-003	2.000000000000000E+000	-2.1604359E-005	2.8217089E-008
2	0	0	1	1	3.985223899324774E+002	-2.2897052E-002	-2.3062911E-002	-1.453801669246484E-003	2.000000000000000E+000	-2.1623924E-005	3.3528899E-008
2	0	0	1	1	3.985355899321439E+002	-2.6195796E-002	-2.6348108E-002	-1.477478792367037E-003	2.000000000000000E+000	-2.1643515E-005	3.8928771E-008
2	0	0	0	1	3.985489899318054E+002	-2.9544517E-002	-2.9722014E-002	-1.502599774140530E-003	2.000000000000000E+000	-2.1663729E-005	4.4660293E-008
2	0	0	1	1	3.985623899314669E+002	-3.2893240E-002	-3.3064473E-002	-1.525494585742613E-003	2.000000000000000E+000	-2.1684260E-005	5.0439674E-008
2	0	0	1	1	3.985755899311334E+002	-3.6197539E-002	-3.6367957E-002	-1.548062070312682E-003	2.000000000000000E+000	-2.1704791E-005	5.6299854E-008
2	0	0	0	1	3.985889899307949E+002	-3.9557364E-002	-3.9729238E-002	-1.572474645162296E-003	2.000000000000000E+000	-2.1725944E-005	6.2473219E-008
2	0	0	0	1	3.986021899304615E+002	-4.2856108E-002	-4.3045815E-002	-1.595620828862193E-003	2.000000000000000E+000	-2.1747099E-005	6.8684798E-008
2	0	0	1	1	3.986155899301230E+002	-4.6204831E-002	-4.6398394E-002	-1.615811038967267E-003	2.000000000000000E+000	-2.1768863E-005	7.4971034E-008
2	0	0	0	1	3.986289899297844E+002	-4.9553558E-002	-4.9754113E-002	-1.638573899749141E-003	2.000000000000000E+000	-2.1790915E-005	8.1525791E-008
2	0	0	0	1	3.986421899294510E+002	-5.2852303E-002	-5.3049892E-002	-1.661458614368417E-003	2.000000000000000E+000	-2.1812937E-005	8.8140197E-008
2	0	0	1	1	3.986555899291125E+002	-5.6201030E-002	-5.6404948E-002	-1.682757115183148E-003	2.000000000000000E+000	-2.1835589E-005	9.4915826E-008
2	0	0	0	1	3.986689899287740E+002	-5.9549749E-002	-5.9738316E-002	-1.704019194787382E-003	2.000000000000000E+000	-2.1858528E-005	1.0179524E-007
2	0	0	0	1	3.986821899284405E+002	-6.2848493E-002	-6.3024916E-002	-1.725695787303662E-003	2.000000000000000E+000	-2.1881408E-005	1.0876183E-007
2	0	0	1	1	3.986955899281020E+002	-6.6197209E-002	-6.6383369E-002	-1.747699803834416E-003	2.000000000000000E+000	-2.1904927E-005	1.1601820E-007
2	0	0	0	1	3.987089899277635E+002	-6.9545932E-002	-6.9721445E-002	-1.768844192914299E-003	2.000000000000000E+000	-2.1928738E-005	1.2332637E-007
2	0	0	0	1	3.987221899274300E+002	-7.2844669E-002	-7.3052913E-002	-1.792157633270921E-003	2.000000000000000E+000	-2.1952485E-005	1.3092233E-007
2	0	0	1	1	3.987355899270915E+002	-7.6193400E-002	-7.6391287E-002	-1.813888746194908E-003	2.000000000000000E+000	-2.1976894E-005	1.3856530E-007
2	0	0	0	1	3.987488899267555E+002	-7.9519808E-002	-7.9690337E-002	-1.833547026279952E-003	2.000000000000000E+000	-2.2001395E-005	1.4611598E-007
2	0	0	0	1	3.987621899264195E+002	-8.2857527E-002	-8.3030269E-002	-1.857035977132514E-003	2.000000000000000E+000	-2.2026192E-005	1.5419019E-007
2	0	0	1	1	3.987755899260810E+002	-8.6206250E-002	-8.6382620E-002	-1.875957691229106E-003	2.000000000000000E+000	-2.2051445E-005	1.6205014E-007
2	0	0	1	1	3.987887899257476E+002	-8.9504994E-002	-8.9655444E-002	-1.897879131876029E-003	2.000000000000000E+000	-2.2076594E-005	1.7015519E-007
2	0	0	0	1	3.988021899254090E+002	-9.2853718E-002	-9.3013704E-002	-1.919389553081095E-003	2.000000000000000E+000	-2.2102417E-005	1.7852953E-007
2	0	0	1	1	3.988155899250705E+002	-9.6202448E-002	-9.6347459E-002	-1.942110192360097E-003	2.000000000000000E+000	-2.2128534E-005	1.8711738E-007
2	0	0	1	1	3.988287899247371E+002	-9.9501185E-002	-9.9667415E-002	-1.961578891041423E-003	2.000000000000000E+000	-2.2154538E-005	1.9550549E-007
2	0	0	0	1	3.988421899243986E+002	-1.0284990E-001	-1.0299760E-001	-1.983596527194702E-003	2.000000000000000E+000	-2.2181217E-005	2.0430568E-007
2	0	0	1	1	3.988555899240600E+002	-1.0619862E-001	-1.0636611E-001	-2.003267816881919E-003	2.000000000000000E+000	-2.2208176E-005	2.1307980E-007
2	0	0	1	1	3.988687899237266E+002	-1.0949737E-001	-1.0966262E-001	-2.025021241732043E-003	2.000000000000000E+000	-2.2235008E-005	2.2206913E-007
2	0	0	0	1	3.988821899233881E+002	-1.1284609E-001	-1.1299311E-001	-2.046845628067072E-003	2.000000000000000E+000	-2.2262535E-005	2.3127946E-007
2	0	0	1	1	3.988955899230496E+002	-1.1619482E-001	-1.1634713E-001	-2.068887896934438E-003	2.000000000000000E+000	-2.2290353E-005	2.4070917E-007
2	0	0	1	1	3.989087899227161E+002	-1.1949357E-001	-1.1965741E-001	-2.089452167284532E-003	2.000000000000000E+000	-2.2318041E-005	2.5001845E-007
2	0	0	0	1	3.989221899223776E+002	-1.2284229E-001	-1.2298655E-001	-2.109533225171215E-003	2.000000000000000E+000	-2.2346429E-005	2.5944422E-007
2	0	0	0	1	3.989353899220441E+002	-1.2615769E-001	-1.2632275E-001	-2.134748496660492E-003	2.000000000000000E+000	-2.2374688E-005	2.6966728E-007
2	0	0	1	1	3.989487899217056E+002	-1.2950641E-001	-1.2968440E-001	-2.154803416851796E-003	2.000000000000000E+000	-2.2403679E-005	2.7944441E-007
2	0	0	0	1	3.989621899213671E+002	-1.3285513E-001	-1.3303269E-001	-2.174370523941128E-003	2.000000000000000E+000	-2.2432932E-005	2.8926237E-007
2	0	0	0	1	3.989753899210336E+002	-1.3615388E-001	-1.3633609E-001	-2.196304338991061E-003	2.000000000000000E+000	-2.2462023E-005	2.9943556E-007
2	0	0	1	1	3.989887899206951E+002	-1.3950260E-001	-1.3967977E-001	-2.217807405395428E-003	2.000000000000000E+000	-2.2491849E-005	3.0978285E-007
2	0	0	0	1	3.990021899203566E+002	-1.4285132E-001	-1.4303455E-001	-2.238997788319673E-003	2.000000000000000E+000	-2.2521954E-005	3.2025403E-007
2	0	0	0	1	3.990153899200232E+002	-1.4615008E-001	-1.4634724E-001	-2.260923190301078E-003	2.000000000000000E+000	-2.2551892E-005	3.3087986E-007
2	0	0	1	1	3.990287899196846E+002	-1.4949879E-001	-1.4966920E-001	-2.280008758215333E-003	2.000000000000000E+000	-2.2582568E-005	3.4124707E-007
2	0	0	0	1	3.990421899193461E+002	-1.5284751E-001	-1.5302110E-001	-2.302233124889122E-003	2.000000000000000E+000	-2.2613516E-005	3.5229024E-007
2	0	0	0	1	3.990553899190127E+002	-1.5614626E-001	-1.5630928E-001	-2.323303783719491E-003	2.000000000000000E+000	-2.2644288E-005	3.6315393E-007
2	0	0	1	1	3.990687899186742E+002	-1.5949497E-001	-1.5965000E-001	-2.346451884174408E-003	2.000000000000000E+000	-2.2675831E-005	3.7461103E-007
2	0	0	0	1	3.990821899183356E+002	-1.6284370E-001	-1.6302821E-001	-2.369329345785638E-003	2.000000000000000E+000	-2.2707674E-005	3.8626752E-007
2	0	0	0	1	3.990953899180022E+002	-1.6614245E-001	-1.6632831E-001	-2.390167723640636E-003	2.000000000000000E+000	-2.2739327E-005	3.9755255E-007
2	0	0	1	1	3.991087899176637E+002	-1.6950782E-001	-1.6970657E-001	-2.414254174032571E-003	2.000000000000000E+000	-2.2771761E-005	4.0971480E-007
2	0	0	1	1	3.991219899173302E+002	-1.7280656E-001	-1.7300011E-001	-2.434158473048829E-003	2.000000000000000E+000	-2.2804003E-005	4.2110969E-007
2	0	0	0	1	3.991353899169917E+002	-1.7615530E-001	-1.7633127E-001	-2.455263396778816E-003	2.000000000000000E+000	-2.2837012E-005	4.3293971E-007
2	0	0	1	1	3.991487899166532E+002	-1.7950402E-001	-1.7969038E-001	-2.480486341533424E-003	2.000000000000000E+000	-2.2870325E-005	4.4571954E-007
2	0	0	1	1	3.991619899163197E+002	-1.8280278E-001	-1.8299155E-001	-2.502354325325645E-003	2.000000000000000E+000	-2.2903450E-005	4.5790969E-007
2	0	0	0	1	3.991753899159812E+002	-1.8615150E-001	-1.8634528E-001	-2.524097645982697E-003	2.000000000000000E+000	-2.2937380E-005	4.7035368E-007
2	0	0	1	1	3.991887899156427E+002	-1.8950021E-001	-1.8969406E-001	-2.548879550946966E-003	2.000000000000000E+000	-2.2971615E-005	4.8350734E-007
2	0	0	1	1	3.992019899153092E+002	-1.9279896E-001	-1.9297695E-001	-2.570919811508560E-003	2.000000000000000E+000	-2.3005650E-005	4.9612828E-007
2	0	0	0	1	3.992153899149707E+002	-1.9614768E-001	-1.9632688E-001	-2.596019206086778E-003	2.000000000000000E+000	-2.3040518E-005	5.0966838E-007
2	0	0	1	1	3.992287899146322E+002	-1.9949640E-001	-1.9966376E-001	-2.621338044920977E-003	2.000000000000000E+000	-2.3075720E-005	5.2338623E-007
2	0	0	1	1	3.992419899142988E+002	-2.0279515E-001	-2.0297539E-001	-2.648091842103087E-003	2.000000000000000E+000	-2.3110751E-005	5.3749750E-007
2	0	0	0	1	3.992553899139602E+002	-2.0614386E-001	-2.0633940E-001	-2.673984157495903E-003	2.000000000000000E+000	-2.3146664E-005	5.5174831E-007
2	0	0	1	1	3.992687899136217E+002	-2.0949259E-001	-2.0966738E-001	-2.701707951160245E-003	2.000000000000000E+000	-2.3182931E-005	5.6646002E-007
2	0	0	1	1	3.992819899132883E+002	-2.1280798E-001	-2.1301879E-001	-2.733288909065677E-003	2.000000000000000E+000	-2.3219047E-005	5.8224191E-007
2	0	0	0	1	3.992953899129498E+002	-2.1615672E-001	-2.1635404E-001	-2.759779818198789E-003	2.000000000000000E+000	-2.3256098E-005	5.9708952E-007
2	0	0	0	1	3.993085899126163E+002	-2.1945547E-001	-2.1964739E-001	-2.787898045436221E-003	2.000000000000000E+000	-2.3292952E-005	6.1235454E-007
2	0	0	1	1	3.993219899122778E+002	-2.2280419E-001	-2.2301318E-001	-2.820484849053159E-003	2.000000000000000E+000	-2.3330780E-005	6.2900529E-007
2	0	0	0	1	3.993353899119393E+002	-2.2615293E-001	-2.2637042E-001	-2.851301754910506E-003	2.000000000000000E+000	-2.3369028E-005	6.4545037E-007
2	0	0	0	1	3.993485899116058E+002	-2.2945164E-001	-2.2965512E-001	-2.884399370072446E-003	2.000000000000000E+000	-2.3407130E-005	6.6241705E-007
2	0	0	1	1	3.993619899112673E+002	-2.3280036E-001	-2.3300098E-001	-2.918343396302384E-003	2.000000000000000E+000	-2.3446257E-005	6.7997689E-007
2	0	0	0	1	3.993753899109288E+002	-2.3614910E-001	-2.3633730E-001	-2.954153461370068E-003	2.000000000000000E+000	-2.3485849E-005	6.9817668E-007
2	0	0	0	1	3.993885899105953E+002	-2.3944785E-001	-2.3962416E-001	-2.990930631696954E-003	2.000000000000000E+000	-2.3525337E-005	7.1669922E-007
2	0	0	1	1	3.994019899102568E+002	-2.4279657E-001	-2.4296883E-001	-3.031679431054112E-003	2.000000000000000E+000	-2.3565950E-005	7.3660362E-007
2	0	0	0	1	3.994153899099183E+002	-2.4614528E-001	-2.4635784E-001	-3.071991938183288E-003	2.000000000000000E+000	-2.3607103E-005	7.5680930E-007
2	0	0	0	1	3.994285899095848E+002	-2.4944402E-001	-2.4965315E-001	-3.113094841885169E-003	2.000000000000000E+000	-2.3648177E-005	7.7719392E-007
2	0	0	1	1	3.994419899092463E+002	-2.5279275E-001	-2.5299102E-001	-3.156486032912645E-003	2.000000000000000E+000	-2.3690436E-005	7.9856261E-007
2	0	0	0	1	3.994552899089103E+002	-2.5613046E-001	-2.5631249E-001	-3.199066159551858E-003	2.000000000000000E+000	-2.3732946E-005	8.1996063E-007
2	0	0	0	1	3.994685899085744E+002	-2.5945690E-001	-2.5963542E-001	-3.243893314316258E-003	2.000000000000000E+000	-2.3776049E-005	8.4222961E-007
2	0	0	1	1	3.994819899082358E+002	-2.6280561E-001	-2.6299429E-001	-3.289451524688049E-003	2.000000000000000E+000	-2.3820074E-005	8.6510698E-007
2	0	0	1	1	3.994951899079024E+002	-2.6610437E-001	-2.6629367E-001	-3.338631348439473E-003	2.000000000000000E+000	-2.3864070E-005	8.8905642E-007
2	0	0	0	1	3.995085899075639E+002	-2.6945308E-001	-2.6963282E-001	-3.385364687750934E-003	2.000000000000000E+000	-2.3909377E-005	9.1280543E-007
2	0	0	1	1	3.995219899072254E+002	-2.7280182E-001	-2.7297568E-001	-3.433857182386028E-003	2.000000000000000E+000	-2.3955317E-005	9.3735952E-007
2	0	0	1	1	3.995351899068919E+002	-2.7610055E-001	-2.7628103E-001	-3.482614155190175E-003	2.000000000000000E+000	-2.4001218E-005	9.6218025E-007
2	0	0	0	1	3.995485899065534E+002	-2.7944928E-001	-2.7961075E-001	-3.530644005008458E-003	2.000000000000000E+000	-2.4048462E-005	9.8720602E-007
2	0	0	1	1	3.995619899062149E+002	-2.8279799E-001	-2.8294128E-001	-3.580297220671332E-003	2.000000000000000E+000	-2.4096364E-005	1.0130138E-006
2	0	0	1	1	3.995751899058814E+002	-2.8609672E-001	-2.8626814E-001	-3.632483783945224E-003	2.000000000000000E+000	-2.4144221E-005	1.0398644E-006
2	0	0	0	1	3.995885899055429E+002	-2.8944543E-001	-2.8962189E-001	-3.683565094434030E-003	2.000000000000000E+000	-2.4193496E-005	1.0668410E-006
2	0	0	1	1	3.996019899052044E+002	-2.9279414E-001	-2.9297382E-001	-3.732912514169583E-003	2.000000000000000E+000	-2.4243440E-005	1.0936457E-006
2	0	0	1	1	3.996151899048709E+002	-2.9609290E-001	-2.9627064E-001	-3.786283904971946E-003	2.000000000000000E+000	-2.4293320E-005	1.1217647E-006
2	0	0	0	1	3.996285899045324E+002	-2.9945272E-001	-2.9964539E-001	-3.840111088498417E-003	2.000000000000000E+000	-2.4344674E-005	1.1506716E-006
2	0	0	0	1	3.996417899041990E+002	-3.0275702E-001	-3.0296111E-001	-3.887006086107335E-003	2.000000000000000E+000	-2.4395922E-005	1.1776117E-006
2	0	0	1	1	3.996551899038604E+002	-3.0610576E-001	-3.0630109E-001	-3.937228671525697E-003	2.000000000000000E+000	-2.4448600E-005	1.2059775E-006
2	0	0	0	1	3.996685899035219E+002	-3.0945447E-001	-3.0964506E-001	-3.989971854914773E-003	2.000000000000000E+000	-2.4501966E-005	1.2354751E-006
2	0	0	0	1	3.996817899031885E+002	-3.1275323E-001	-3.1296402E-001	-4.037985725497295E-003	2.000000000000000E+000	-2.4555200E-005	1.2637443E-006
2	0	0	1	1	3.996951899028500E+002	-3.1610194E-001	-3.1629845E-001	-4.088118337353480E-003	2.000000000000000E+000	-2.4609901E-005	1.2930656E-006
2	0	0	0	1	3.997085899025114E+002	-3.1945068E-001	-3.1964040E-001	-4.137075358064748E-003	2.000000000000000E+000	-2.4665265E-005	1.3223764E-006
2	0	0	0	1	3.997217899021780E+002	-3.2274941E-001	-3.2293880E-001	-4.187833504349510E-003	2.000000000000000E+000	-2.4720459E-005	1.3524140E-006
2	0	0	1	1	3.997351899018395E+002	-3.2609811E-001	-3.2628259E-001	-4.238550676180036E-003	2.000000000000000E+000	-2.4777175E-005	1.3829653E-006
2	0	0	0	1	3.997485899015010E+002	-3.2944685E-001	-3.2963109E-001	-4.289519622943765E-003	2.000000000000000E+000	-2.4834570E-005	1.4139590E-006
2	0	0	0	1	3.997617899011675E+002	-3.3274558E-001	-3.3293751E-001	-4.338434047531321E-003	2.000000000000000E+000	-2.4891764E-005	1.4444274E-006
2	0	0	1	1	3.997751899008290E+002	-3.3609432E-001	-3.3628789E-001	-4.387649662223533E-003	2.000000000000000E+000	-2.4950485E-005	1.4755134E-006
2	0	0	0	1	3.997885899004905E+002	-3.3944306E-001	-3.3964711E-001	-4.438837022502806E-003	2.000000000000000E+000	-2.5009869E-005	1.5076382E-006
2	0	0	0	1	3.998017899001570E+002	-3.4275287E-001	-3.4298769E-001	-4.488891969534361E-003	2.000000000000000E+000	-2.5069045E-005	1.5396347E-006
2	0	0	1	1	3.998151898998185E+002	-3.4610721E-001	-3.4633592E-001	-4.537383650636495E-003	2.000000000000000E+000	-2.5129777E-005	1.5714589E-006
2	0	0	1	1	3.998283898994850E+002	-3.4940591E-001	-3.4961286E-001	-4.586318618506391E-003	2.000000000000000E+000	-2.5190246E-005	1.6034360E-006
2	0	0	0	1	3.998417898991465E+002	-3.5275462E-001	-3.5298738E-001	-4.635642768254103E-003	2.000000000000000E+000	-2.5252295E-005	1.6363234E-006
2	0	0	1	1	3.998551898988080E+002	-3.5610336E-001	-3.5631445E-001	-4.685077421082588E-003	2.000000000000000E+000	-2.5314997E-005	1.6693608E-006
2	0	0	1	1	3.998683898984746E+002	-3.5940209E-001	-3.5961413E-001	-4.734651678134267E-003	2.000000000000000E+000	-2.5377421E-005	1.7026476E-006
2	0	0	0	1	3.998817898981360E+002	-3.6275083E-001	-3.6295336E-001	-4.783775654707112E-003	2.000000000000000E+000	-2.5441457E-005	1.7362875E-006
2	0	0	1	1	3.998951898977975E+002	-3.6609957E-001	-3.6631081E-001	-4.834831760834067E-003	2.000000000000000E+000	-2.5506155E-005	1.7710511E-006
2	0	0	1	1	3.999083898974641E+002	-3.6939830E-001	-3.6959511E-001	-4.883544486700770E-003	2.000000000000000E+000	-2.5570547E-005	1.8049342E-006
2	0	0	0	1	3.999217898971256E+002	-3.7274703E-001	-3.7296954E-001	-4.936612223456089E-003	2.000000000000000E+000	-2.5636607E-005	1.8412060E-006
2	0	0	1	1	3.999351898967871E+002	-3.7609571E-001	-3.7631774E-001	-4.988856467753058E-003	2.000000000000000E+000	-2.5703363E-005	1.8773952E-006
2	0	0	1	1	3.999483898964536E+002	-3.7939450E-001	-3.7961215E-001	-5.039341186784438E-003	2.000000000000000E+000	-2.5769799E-005	1.9129952E-006
2	0	0	0	1	3.999617898961151E+002	-3.8274321E-001	-3.8299337E-001	-5.094728947147409E-003	2.000000000000000E+000	-2.5837955E-005	1.9512474E-006
2	0	0	1	1	3.999750898957791E+002	-3.8606963E-001	-3.8630581E-001	-5.147334166394974E-003	2.000000000000000E+000	-2.5906316E-005	1.9884451E-006
2	0	0	1	1	3.999883898954431E+002	-3.8940734E-001	-3.8965869E-001	-5.201102555737538E-003	2.000000000000000E+000	-2.5975389E-005	2.0266548E-006
2	0	0	0	1	4.000017898951046E+002	-3.9275607E-001	-3.9300039E-001	-5.257348228769831E-003	2.000000000000000E+000	-2.6045711E-005	2.0661398E-006
2	0	0	0	1	4.000149898947711E+002	-3.9605477E-001	-3.9631647E-001	-5.311415344880915E-003	2.000000000000000E+000	-2.6115718E-005	2.1050014E-006
2	0	0	1	1	4.000283898944326E+002	-3.9940354E-001	-3.9964280E-001	-5.364421544214154E-003	2.000000000000000E+000	-2.6187503E-005	2.1438525E-006
2	0	0	0	1	4.000417898940941E+002	-4.0275225E-001	-4.0298715E-001	-5.422808039636712E-003	2.000000000000000E+000	-2.6260028E-005	2.1853220E-006
2	0	0	0	1	4.000549898937606E+002	-4.0605098E-001	-4.0627223E-001	-5.480099580785873E-003	2.000000000000000E+000	-2.6332234E-005	2.2264123E-006
2	0	0	1	1	4.000683898934221E+002	-4.0939969E-001	-4.0962335E-001	-5.537205143526902E-003	2.000000000000000E+000	-2.6406307E-005	2.2681686E-006
2	0	0	0	1	4.000817898930836E+002	-4.1274846E-001	-4.1296849E-001	-5.599620401881084E-003	2.000000000000000E+000	-2.6481177E-005	2.3124667E-006
2	0	0	0	1	4.000949898927502E+002	-4.1604719E-001	-4.1627309E-001	-5.660159809586812E-003	2.000000000000000E+000	-2.6555745E-005	2.3561722E-006
2	0	0	1	1	4.001083898924117E+002	-4.1939589E-001	-4.1964889E-001	-5.721203349680251E-003	2.000000000000000E+000	-2.6632260E-005	2.4008966E-006
2	0	0	0	1	4.001217898920731E+002	-4.2274460E-001	-4.2297837E-001	-5.785382829304154E-003	2.000000000000000E+000	-2.6709609E-005	2.4470919E-006
2	0	0	0	1	4.001349898917397E+002	-4.2604336E-001	-4.2625329E-001	-5.848544329880176E-003	2.000000000000000E+000	-2.6786651E-005	2.4929614E-006
2	0	0	1	1	4.001483898914012E+002	-4.2939213E-001	-4.2961389E-001	-5.914509579977467E-003	2.000000000000000E+000	-2.6865717E-005	2.5409554E-006
2	0	0	1	1	4.001615898910677E+002	-4.3270752E-001	-4.3292257E-001	-5.979823606564114E-003	2.000000000000000E+000	-2.6944475E-005	2.5888007E-006
2	0	0	0	1	4.001749898907292E+002	-4.3605620E-001	-4.3627405E-001	-6.048303009022961E-003	2.000000000000000E+000	-2.7025329E-005	2.6387177E-006
2	0	0	1	1	4.001883898903907E+002	-4.3940493E-001	-4.3962210E-001	-6.117145673023405E-003	2.000000000000000E+000	-2.7107102E-005	2.6892324E-006
2	0	0	1	1	4.002015898900572E+002	-4.4270366E-001	-4.4291845E-001	-6.185495054584572E-003	2.000000000000000E+000	-2.7188558E-005	2.7396700E-006
2	0	0	0	1	4.002149898897187E+002	-4.4605240E-001	-4.4626892E-001	-6.257770995014445E-003	2.000000000000000E+000	-2.7272188E-005	2.7926487E-006
2	0	0	1	1	4.002283898893802E+002	-4.4940111E-001	-4.4960031E-001	-6.328373916423713E-003	2.000000000000000E+000	-2.7356771E-005	2.8452389E-006
2	0	0	1	1	4.002415898890467E+002	-4.5269984E-001	-4.5290974E-001	-6.402358688016321E-003	2.000000000000000E+000	-2.7441050E-005	2.8996906E-006
2	0	0	0	1	4.002549898887082E+002	-4.5604855E-001	-4.5624325E-001	-6.478074279503865E-003	2.000000000000000E+000	-2.7527611E-005	2.9555777E-006
2	0	0	1	1	4.002683898883697E+002	-4.5939732E-001	-4.5960590E-001	-6.554012449244806E-003	2.000000000000000E+000	-2.7615180E-005	3.0122628E-006
2	0	0	1	1	4.002815898880363E+002	-4.6269602E-001	-4.6289545E-001	-6.630309510243626E-003	2.000000000000000E+000	-2.7702450E-005	3.0691401E-006
2	0	0	0	1	4.002949898876977E+002	-4.6604475E-001	-4.6626717E-001	-6.710109411627231E-003	2.000000000000000E+000	-2.7792094E-005	3.1287036E-006
2	0	0	1	1	4.003083898873592E+002	-4.6939346E-001	-4.6963668E-001	-6.793159775123833E-003	2.000000000000000E+000	-2.7882836E-005	3.1903171E-006
2	0	0	1	1	4.003215898870258E+002	-4.7269222E-001	-4.7292638E-001	-6.873018583024101E-003	2.000000000000000E+000	-2.7973290E-005	3.2504317E-006
2	0	0	0	1	4.003349898866873E+002	-4.7605768E-001	-4.7628587E-001	-6.958636102232671E-003	2.000000000000000E+000	-2.8066215E-005	3.3143001E-006
2	0	0	0	1	4.003481898863538E+002	-4.7935641E-001	-4.7957960E-001	-7.041199881374874E-003	2.000000000000000E+000	-2.8158871E-005	3.3768158E-006
2	0	0	1	1	4.003615898860153E+002	-4.8270512E-001	-4.8293829E-001	-7.126077811982309E-003	2.000000000000000E+000	-2.8254053E-005	3.4414559E-006
2	0	0	0	1	4.003749898856768E+002	-4.8605382E-001	-4.8628584E-001	-7.213119900027097E-003	2.000000000000000E+000	-2.8350381E-005	3.5076380E-006
2	0	0	0	1	4.003881898853433E+002	-4.8935258E-001	-4.8957115E-001	-7.299656539827152E-003	2.000000000000000E+000	-2.8446424E-005	3.5737012E-006
2	0	0	1	1	4.004015898850048E+002	-4.9270129E-001	-4.9293420E-001	-7.388665893934866E-003	2.000000000000000E+000	-2.8545101E-005	3.6421261E-006
2	0	0	0	1	4.004149898846663E+002	-4.9604997E-001	-4.9625948E-001	-7.478618278683957E-003	2.000000000000000E+000	-2.8644967E-005	3.7113352E-006
2	0	0	0	1	4.004281898843328E+002	-4.9934873E-001	-4.9957559E-001	-7.572430029985200E-003	2.000000000000000E+000	-2.8744562E-005	3.7830011E-006
2	0	0	1	1	4.004415898839943E+002	-5.0269753E-001	-5.0292736E-001	-7.664279342700142E-003	2.000000000000000E+000	-2.8846918E-005	3.8545759E-006
2	0	0	0	1	4.004549898836558E+002	-5.0604624E-001	-5.0627387E-001	-7.758804815279657E-003	2.000000000000000E+000	-2.8950519E-005	3.9280803E-006
2	0	0	0	1	4.004681898833223E+002	-5.0934500E-001	-5.0957149E-001	-7.856167223306149E-003	2.000000000000000E+000	-2.9053841E-005	4.0032787E-006
2	0	0	1	1	4.004815898829838E+002	-5.1269370E-001	-5.1294088E-001	-7.952647414559672E-003	2.000000000000000E+000	-2.9160034E-005	4.0792379E-006
2	0	0	0	1	4.004949898826453E+002	-5.1604241E-001	-5.1627260E-001	-8.050911183616144E-003	2.000000000000000E+000	-2.9267525E-005	4.1564649E-006
2	0	0	0	1	4.005081898823119E+002	-5.1935780E-001	-5.1958781E-001	-8.153609043357476E-003	2.000000000000000E+000	-2.9374734E-005	4.2365159E-006
2	0	0	1	1	4.005215898819733E+002	-5.2270645E-001	-5.2295542E-001	-8.256477207841124E-003	2.000000000000000E+000	-2.9484947E-005	4.3177697E-006
2	0	0	1	1	4.005347898816399E+002	-5.2600527E-001	-5.2624470E-001	-8.357297431494867E-003	2.000000000000000E+000	-2.9594856E-005	4.3979835E-006
2	0	0	0	1	4.005481898813014E+002	-5.2935398E-001	-5.2959019E-001	-8.462672900269447E-003	2.000000000000000E+000	-2.9707810E-005	4.4817484E-006
2	0	0	1	1	4.005615898809629E+002	-5.3270274E-001	-5.3293282E-001	-8.565885780343604E-003	2.000000000000000E+000	-2.9822160E-005	4.5650418E-006
2	0	0	1	1	4.005747898806294E+002	-5.3600144E-001	-5.3622645E-001	-8.671755683907448E-003	2.000000000000000E+000	-2.9936185E-005	4.6500249E-006
2	0	0	0	1	4.005881898802909E+002	-5.3935015E-001	-5.3955930E-001	-8.778821599884787E-003	2.000000000000000E+000	-3.0053377E-005	4.7366948E-006
2	0	0	1	1	4.006015898799524E+002	-5.4269892E-001	-5.4293644E-001	-8.890740702231115E-003	2.000000000000000E+000	-3.0172041E-005	4.8271072E-006
2	0	0	1	1	4.006147898796189E+002	-5.4599762E-001	-5.4622459E-001	-8.999646939304939E-003	2.000000000000000E+000	-3.0290386E-005	4.9158284E-006
2	0	0	0	1	4.006281898792804E+002	-5.4934639E-001	-5.4956383E-001	-9.114000252682442E-003	2.000000000000000E+000	-3.0412026E-005	5.0087247E-006
2	0	0	1	1	4.006415898789419E+002	-5.5269504E-001	-5.5292600E-001	-9.233306897052262E-003	2.000000000000000E+000	-3.0535222E-005	5.1053353E-006
2	0	0	1	1	4.006547898786084E+002	-5.5599380E-001	-5.5624741E-001	-9.346033535742510E-003	2.000000000000000E+000	-3.0658110E-005	5.1987072E-006
2	0	0	0	1	4.006681898782699E+002	-5.5934256E-001	-5.5959624E-001	-9.462197314860485E-003	2.000000000000000E+000	-3.0784398E-005	5.2950099E-006
2	0	0	1	1	4.006814898779339E+002	-5.6268030E-001	-5.6292337E-001	-9.585731572045328E-003	2.000000000000000E+000	-3.0911338E-005	5.3960325E-006
2	0	0	1	1	4.006947898775979E+002	-5.6600666E-001	-5.6626654E-001	-9.702450535526930E-003	2.000000000000000E+000	-3.1039883E-005	5.4941729E-006
2	0	0	0	1	4.007081898772594E+002	-5.6935537E-001	-5.6961077E-001	-9.820532113735674E-003	2.000000000000000E+000	-3.1170959E-005	5.5938808E-006
2	0	0	0	1	4.007213898769260E+002	-5.7265413E-001	-5.7291657E-001	-9.944564658750720E-003	2.000000000000000E+000	-3.1301675E-005	5.6974059E-006
2	0	0	1	1	4.007347898765875E+002	-5.7600290E-001	-5.7624686E-001	-1.006496761931175E-002	2.000000000000000E+000	-3.1436004E-005	5.7999059E-006
2	0	0	0	1	4.007481898762489E+002	-5.7935154E-001	-5.7958889E-001	-1.019190489500432E-002	2.000000000000000E+000	-3.1571999E-005	5.9071149E-006
2	0	0	0	1	4.007767898755264E+002	-5.8651125E-001	-5.8674824E-001	-1.045723138873245E-002	2.000000000000000E+000	-3.1867465E-005	6.1357623E-006
2	0	0	0	1	4.008053898748040E+002	-5.9364611E-001	-5.9387308E-001	-1.072723081342697E-002	2.000000000000000E+000	-3.2166634E-005	6.3706138E-006
2	0	0	1	1	4.008187898744654E+002	-5.9699488E-001	-5.9719878E-001	-1.085517134447900E-002	2.000000000000000E+000	-3.2311546E-005	6.4826950E-006
2	0	0	0	1	4.008274898742457E+002	-5.9917337E-001	-5.9938008E-001	-1.094606878382948E-002	2.000000000000000E+000	-3.2406384E-005	6.5608556E-006
2	0	0	0	1	4.008301898741774E+002	-5.9982693E-001	-6.0004270E-001	-1.097017526626587E-002	2.000000000000000E+000	-3.2436019E-005	6.5825734E-006