EC-Lab ASCII FILE
Nb header lines : 53                          

Cyclic Voltammetry

Run on channel : 1 (SN 0696)
User : 
Electrode connection : standard
Ewe ctrl range : min = -10.00 V, max = 10.00 V
Ewe,I filtering : 50 kHz
Channel : Grounded
Acquisition started on : 05/17/2017 13:04:41
Saved on :
	File : 100 uM RS 10mM SHU_04_CV_C01.mpr
	Directory : \\userfs\st659\w2k\EC-Lab\Data\ITO Characterisation 17-5-17\
	Host : 144.32.136.43
Device : SP-300 (SN 0182)
Address : USB
EC-Lab for windows v10.44 (software)
Internet server v10.44 (firmware)
Command interpretor v10.44 (firmware)
Electrode material : 
Initial state : 
Electrolyte : 
Comments : 
Cable : standard
Electrode surface area : 0.001 cm²
Characteristic mass : 0.001 g
Equivalent Weight : 0.000 g/eq.
Density : 0.000 g/cm3
Ei (V)              0.000               
vs.                 Eoc                 
dE/dt               250.000             
dE/dt unit          mV/s                
E1 (V)              0.100               
vs.                 Ref                 
Step percent        50                  
N                   10                  
E range min (V)     -10.000             
E range max (V)     10.000              
I Range             Auto                
I Range min         Unset               
I Range max         Unset               
I Range init        Unset               
Bandwidth           8                   
E2 (V)              -0.600              
vs.                 Ref                 
nc cycles           2                   
Reverse Scan        1                   
Ef (V)              0.000               
vs.                 Eoc                 

mode	ox/red	error	control changes	counter inc.	time/s	control/V	Ewe/V	<I>/mA	cycle number	(Q-Qo)/C	P/W
2	1	0	0	1	4.011697898655984E+002	-6.0016018E-001	-6.0041660E-001	-1.022512745112181E-002	2.000000000000000E+000	-1.2936235E-005	6.1393362E-006
2	1	0	1	1	4.011771898654115E+002	-5.9831095E-001	-5.9854180E-001	-9.231740685653564E-003	2.000000000000000E+000	-1.3005088E-005	5.5255828E-006
2	1	0	1	1	4.011903898650780E+002	-5.9501225E-001	-5.9524709E-001	-8.675137705480090E-003	2.000000000000000E+000	-1.3122236E-005	5.1638503E-006
2	1	0	0	1	4.012037898647395E+002	-5.9166354E-001	-5.9187800E-001	-8.323458661106981E-003	2.000000000000000E+000	-1.3235258E-005	4.9264722E-006
2	1	0	1	1	4.012171898644010E+002	-5.8831483E-001	-5.8852321E-001	-8.033659509884356E-003	2.000000000000000E+000	-1.3344034E-005	4.7279950E-006
2	1	0	1	1	4.012303898640675E+002	-5.8501607E-001	-5.8522481E-001	-7.771311607616072E-003	2.000000000000000E+000	-1.3447539E-005	4.5479642E-006
2	1	0	0	1	4.012437898637290E+002	-5.8166730E-001	-5.8188778E-001	-7.530069038936438E-003	2.000000000000000E+000	-1.3549234E-005	4.3816553E-006
2	1	0	1	1	4.012571898633905E+002	-5.7831866E-001	-5.7852876E-001	-7.310559205587985E-003	2.000000000000000E+000	-1.3647917E-005	4.2293686E-006
2	1	0	1	1	4.012703898630571E+002	-5.7501990E-001	-5.7525307E-001	-7.110356833759903E-003	2.000000000000000E+000	-1.3742320E-005	4.0902546E-006
2	1	0	0	1	4.012837898627186E+002	-5.7167119E-001	-5.7189548E-001	-6.915234942506586E-003	2.000000000000000E+000	-1.3835494E-005	3.9547917E-006
2	1	0	1	1	4.012970898623826E+002	-5.6833345E-001	-5.6856960E-001	-6.728064049644406E-003	2.000000000000000E+000	-1.3925462E-005	3.8253729E-006
2	1	0	1	1	4.013103898620466E+002	-5.6500709E-001	-5.6522638E-001	-6.558017215138504E-003	2.000000000000000E+000	-1.4013016E-005	3.7067643E-006
2	1	0	0	1	4.013237898617081E+002	-5.6165832E-001	-5.6188071E-001	-6.394557628219529E-003	2.000000000000000E+000	-1.4099016E-005	3.5929786E-006
2	1	0	0	1	4.013369898613746E+002	-5.5835962E-001	-5.5857897E-001	-6.239693612123009E-003	2.000000000000000E+000	-1.4181624E-005	3.4853617E-006
2	1	0	1	1	4.013503898610361E+002	-5.5501086E-001	-5.5524135E-001	-6.089521644167283E-003	2.000000000000000E+000	-1.4263447E-005	3.3811541E-006
2	1	0	0	1	4.013637898606976E+002	-5.5166215E-001	-5.5185705E-001	-5.932822545926447E-003	2.000000000000000E+000	-1.4343242E-005	3.2740700E-006
2	1	0	0	1	4.013769898603641E+002	-5.4836339E-001	-5.4856831E-001	-5.806491910637590E-003	2.000000000000000E+000	-1.4419969E-005	3.1852574E-006
2	1	0	1	1	4.013903898600256E+002	-5.4501468E-001	-5.4521435E-001	-5.669653132301583E-003	2.000000000000000E+000	-1.4496077E-005	3.0911763E-006
2	1	0	0	1	4.014037898596871E+002	-5.4166597E-001	-5.4185611E-001	-5.541645280411317E-003	2.000000000000000E+000	-1.4570431E-005	3.0027743E-006
2	1	0	0	1	4.014169898593536E+002	-5.3836721E-001	-5.3856349E-001	-5.420486639781702E-003	2.000000000000000E+000	-1.4642036E-005	2.9192763E-006
2	1	0	1	1	4.014303898590151E+002	-5.3501850E-001	-5.3522241E-001	-5.301196560544157E-003	2.000000000000000E+000	-1.4713096E-005	2.8373192E-006
2	1	0	0	1	4.014437898586766E+002	-5.3166974E-001	-5.3188771E-001	-5.190533103106843E-003	2.000000000000000E+000	-1.4782622E-005	2.7607807E-006
2	1	0	0	1	4.014569898583432E+002	-5.2837104E-001	-5.2858907E-001	-5.075240527508473E-003	2.000000000000000E+000	-1.4849606E-005	2.6827167E-006
2	1	0	1	1	4.014703898580046E+002	-5.2501118E-001	-5.2523702E-001	-4.963956290157523E-003	2.000000000000000E+000	-1.4916124E-005	2.6072537E-006
2	1	0	1	1	4.014835898576712E+002	-5.2170694E-001	-5.2190387E-001	-4.862903593918111E-003	2.000000000000000E+000	-1.4980234E-005	2.5379682E-006
2	1	0	0	1	4.014969898573327E+002	-5.1835817E-001	-5.1856911E-001	-4.757234294932758E-003	2.000000000000000E+000	-1.5043924E-005	2.4669548E-006
2	1	0	1	1	4.015103898569942E+002	-5.1500946E-001	-5.1522785E-001	-4.662189182514929E-003	2.000000000000000E+000	-1.5106286E-005	2.4020896E-006
2	1	0	1	1	4.015235898566607E+002	-5.1171070E-001	-5.1192737E-001	-4.569136430917643E-003	2.000000000000000E+000	-1.5166468E-005	2.3390660E-006
2	1	0	0	1	4.015369898563222E+002	-5.0836200E-001	-5.0858885E-001	-4.466576037359325E-003	2.000000000000000E+000	-1.5226229E-005	2.2716508E-006
2	1	0	1	1	4.015503898559837E+002	-5.0501329E-001	-5.0522828E-001	-4.380837580093680E-003	2.000000000000000E+000	-1.5284762E-005	2.2133231E-006
2	1	0	1	1	4.015635898556502E+002	-5.0171453E-001	-5.0193113E-001	-4.286687253180488E-003	2.000000000000000E+000	-1.5341215E-005	2.1516219E-006
2	1	0	0	1	4.015769898553117E+002	-4.9836579E-001	-4.9856848E-001	-4.197074423508543E-003	2.000000000000000E+000	-1.5397298E-005	2.0925290E-006
2	1	0	1	1	4.015903898549732E+002	-4.9501708E-001	-4.9521932E-001	-4.115073044866024E-003	2.000000000000000E+000	-1.5452233E-005	2.0378636E-006
2	1	0	1	1	4.016035898546397E+002	-4.9171832E-001	-4.9192548E-001	-4.028632291596698E-003	2.000000000000000E+000	-1.5505238E-005	1.9817869E-006
2	1	0	0	1	4.016169898543012E+002	-4.8836961E-001	-4.8858923E-001	-3.950526881514309E-003	2.000000000000000E+000	-1.5557938E-005	1.9301849E-006
2	1	0	1	1	4.016303898539627E+002	-4.8502088E-001	-4.8523399E-001	-3.868965836853824E-003	2.000000000000000E+000	-1.5609590E-005	1.8773537E-006
2	1	0	1	1	4.016435898536292E+002	-4.8171106E-001	-4.8192456E-001	-3.788299307092929E-003	2.000000000000000E+000	-1.5659374E-005	1.8256745E-006
2	1	0	0	1	4.016569898532907E+002	-4.7835681E-001	-4.7856942E-001	-3.709737222197865E-003	2.000000000000000E+000	-1.5708853E-005	1.7753667E-006
2	1	0	0	1	4.016701898529573E+002	-4.7505805E-001	-4.7526580E-001	-3.637863706818387E-003	2.000000000000000E+000	-1.5756590E-005	1.7289522E-006
2	1	0	1	1	4.016835898526188E+002	-4.7170928E-001	-4.7192016E-001	-3.564858190879427E-003	2.000000000000000E+000	-1.5804082E-005	1.6823285E-006
2	1	0	0	1	4.016969898522802E+002	-4.6836057E-001	-4.6855539E-001	-3.484633301721055E-003	2.000000000000000E+000	-1.5850566E-005	1.6327438E-006
2	1	0	0	1	4.017101898519468E+002	-4.6506181E-001	-4.6525645E-001	-3.413836788766056E-003	2.000000000000000E+000	-1.5895357E-005	1.5883096E-006
2	1	0	1	1	4.017235898516083E+002	-4.6171314E-001	-4.6191543E-001	-3.347676227309002E-003	2.000000000000000E+000	-1.5939895E-005	1.5463434E-006
2	1	0	0	1	4.017369898512698E+002	-4.5836437E-001	-4.5855653E-001	-3.276064145474163E-003	2.000000000000000E+000	-1.5983516E-005	1.5022606E-006
2	1	0	0	1	4.017501898509363E+002	-4.5506561E-001	-4.5524225E-001	-3.206308747626792E-003	2.000000000000000E+000	-1.6025551E-005	1.4596473E-006
2	1	0	1	1	4.017635898505978E+002	-4.5171693E-001	-4.5189211E-001	-3.141343479910574E-003	2.000000000000000E+000	-1.6067317E-005	1.4195483E-006
2	1	0	0	1	4.017769898502593E+002	-4.4836822E-001	-4.4854999E-001	-3.075039725909946E-003	2.000000000000000E+000	-1.6108223E-005	1.3793090E-006
2	1	0	0	1	4.017901898499258E+002	-4.4506946E-001	-4.4526228E-001	-3.009771230992752E-003	2.000000000000000E+000	-1.6147651E-005	1.3401376E-006
2	1	0	1	1	4.018035898495873E+002	-4.4172072E-001	-4.4192311E-001	-2.947596922482872E-003	2.000000000000000E+000	-1.6186797E-005	1.3026112E-006
2	1	0	0	1	4.018168898492513E+002	-4.3838868E-001	-4.3859091E-001	-2.877405514929259E-003	2.000000000000000E+000	-1.6224805E-005	1.2620039E-006
2	1	0	0	1	4.018301898489153E+002	-4.3505663E-001	-4.3525234E-001	-2.819234524566939E-003	2.000000000000000E+000	-1.6261931E-005	1.2270784E-006
2	1	0	1	1	4.018435898485768E+002	-4.3170789E-001	-4.3192109E-001	-2.758821008481189E-003	2.000000000000000E+000	-1.6298538E-005	1.1915930E-006
2	1	0	1	1	4.018567898482434E+002	-4.2840916E-001	-4.2861539E-001	-2.695171384129932E-003	2.000000000000000E+000	-1.6333794E-005	1.1551920E-006
2	1	0	0	1	4.018701898479048E+002	-4.2506039E-001	-4.2527381E-001	-2.639368315198620E-003	2.000000000000000E+000	-1.6368793E-005	1.1224543E-006
2	1	0	1	1	4.018835898475663E+002	-4.2171171E-001	-4.2194337E-001	-2.578180421268270E-003	2.000000000000000E+000	-1.6403008E-005	1.0878462E-006
2	1	0	1	1	4.018967898472329E+002	-4.1841298E-001	-4.1864550E-001	-2.522565475859054E-003	2.000000000000000E+000	-1.6435904E-005	1.0560607E-006
2	1	0	0	1	4.019101898468944E+002	-4.1506422E-001	-4.1526845E-001	-2.461217391404105E-003	2.000000000000000E+000	-1.6468528E-005	1.0220659E-006
2	1	0	1	1	4.019235898465558E+002	-4.1171551E-001	-4.1191527E-001	-2.404988217434338E-003	2.000000000000000E+000	-1.6500378E-005	9.9065142E-007
2	1	0	1	1	4.019367898462224E+002	-4.0841681E-001	-4.0862253E-001	-2.352442172701159E-003	2.000000000000000E+000	-1.6531030E-005	9.6126087E-007
2	1	0	0	1	4.019501898458839E+002	-4.0506804E-001	-4.0527385E-001	-2.295564843421341E-003	2.000000000000000E+000	-1.6561416E-005	9.3033242E-007
2	1	0	1	1	4.019635898455454E+002	-4.0171930E-001	-4.0195280E-001	-2.239847622756003E-003	2.000000000000000E+000	-1.6591070E-005	9.0031301E-007
2	1	0	1	1	4.019767898452119E+002	-3.9842060E-001	-3.9863890E-001	-2.188356090735182E-003	2.000000000000000E+000	-1.6619551E-005	8.7236390E-007
2	1	0	0	1	4.019901898448734E+002	-3.9506632E-001	-3.9529765E-001	-2.132720256607473E-003	2.000000000000000E+000	-1.6647742E-005	8.4305930E-007
2	1	0	0	1	4.020033898445399E+002	-3.9175645E-001	-3.9196855E-001	-2.080190863095278E-003	2.000000000000000E+000	-1.6674803E-005	8.1536939E-007
2	1	0	1	1	4.020167898442014E+002	-3.8840771E-001	-3.8863069E-001	-2.031259953117934E-003	2.000000000000000E+000	-1.6701586E-005	7.8940997E-007
2	1	0	0	1	4.020301898438629E+002	-3.8505900E-001	-3.8528743E-001	-1.979229771010678E-003	2.000000000000000E+000	-1.6727718E-005	7.6257237E-007
2	1	0	0	1	4.020433898435294E+002	-3.8176024E-001	-3.8195941E-001	-1.925223003884945E-003	2.000000000000000E+000	-1.6752751E-005	7.3535705E-007
2	1	0	1	1	4.020567898431909E+002	-3.7841156E-001	-3.7860343E-001	-1.878523816028769E-003	2.000000000000000E+000	-1.6777476E-005	7.1121553E-007
2	1	0	0	1	4.020701898428524E+002	-3.7506279E-001	-3.7525997E-001	-1.829493944013747E-003	2.000000000000000E+000	-1.6801578E-005	6.8653583E-007
2	1	0	0	1	4.020833898425190E+002	-3.7176406E-001	-3.7195936E-001	-1.780024907111502E-003	2.000000000000000E+000	-1.6824670E-005	6.6209691E-007
2	1	0	1	1	4.020967898421804E+002	-3.6841533E-001	-3.6859900E-001	-1.733982147056341E-003	2.000000000000000E+000	-1.6847458E-005	6.3914410E-007
2	1	0	0	1	4.021101898418419E+002	-3.6506659E-001	-3.6526221E-001	-1.689210588139957E-003	2.000000000000000E+000	-1.6869659E-005	6.1700479E-007
2	1	0	0	1	4.021233898415085E+002	-3.6176786E-001	-3.6198097E-001	-1.643676126190655E-003	2.000000000000000E+000	-1.6890919E-005	5.9497950E-007
2	1	0	1	1	4.021367898411700E+002	-3.5841912E-001	-3.5862413E-001	-1.597687314764087E-003	2.000000000000000E+000	-1.6911872E-005	5.7296921E-007
2	1	0	0	1	4.021501898408314E+002	-3.5507044E-001	-3.5529369E-001	-1.554661378425706E-003	2.000000000000000E+000	-1.6932228E-005	5.5236137E-007
2	1	0	0	1	4.021633898404980E+002	-3.5176611E-001	-3.5198221E-001	-1.502805088623271E-003	2.000000000000000E+000	-1.6951666E-005	5.2896064E-007
2	1	0	1	1	4.021767898401595E+002	-3.4840629E-001	-3.4859699E-001	-1.459762853861936E-003	2.000000000000000E+000	-1.6970782E-005	5.0886894E-007
2	1	0	1	1	4.021899898398260E+002	-3.4510759E-001	-3.4532696E-001	-1.420469461011938E-003	2.000000000000000E+000	-1.6989061E-005	4.9052642E-007
2	1	0	0	1	4.022033898394875E+002	-3.4175885E-001	-3.4197602E-001	-1.375407107762939E-003	2.000000000000000E+000	-1.7007047E-005	4.7035624E-007
2	1	0	1	1	4.022167898391490E+002	-3.3841014E-001	-3.3858696E-001	-1.332183663912974E-003	2.000000000000000E+000	-1.7024444E-005	4.5106000E-007
2	1	0	1	1	4.022299898388155E+002	-3.3511138E-001	-3.3529052E-001	-1.294211968034786E-003	2.000000000000000E+000	-1.7041020E-005	4.3393700E-007
2	1	0	0	1	4.022433898384770E+002	-3.3176267E-001	-3.3195117E-001	-1.251744933607472E-003	2.000000000000000E+000	-1.7057308E-005	4.1551820E-007
2	1	0	1	1	4.022567898381385E+002	-3.2841393E-001	-3.2859468E-001	-1.209563559647603E-003	2.000000000000000E+000	-1.7073051E-005	3.9745615E-007
2	1	0	1	1	4.022699898378050E+002	-3.2511517E-001	-3.2527921E-001	-1.171262966297749E-003	2.000000000000000E+000	-1.7088027E-005	3.8098750E-007
2	1	0	0	1	4.022833898374665E+002	-3.2176644E-001	-3.2194570E-001	-1.131190901767493E-003	2.000000000000000E+000	-1.7102693E-005	3.6418206E-007
2	1	0	1	1	4.022967898371280E+002	-3.1841773E-001	-3.1860656E-001	-1.095026997917456E-003	2.000000000000000E+000	-1.7116867E-005	3.4888279E-007
2	1	0	1	1	4.023099898367946E+002	-3.1511900E-001	-3.1530941E-001	-1.054871862480569E-003	2.000000000000000E+000	-1.7130298E-005	3.3261102E-007
2	1	0	0	1	4.023233898364560E+002	-3.1177026E-001	-3.1196657E-001	-1.016733089510228E-003	2.000000000000000E+000	-1.7143408E-005	3.1718673E-007
2	1	0	1	1	4.023367898361175E+002	-3.0842155E-001	-3.0860892E-001	-9.783423573026060E-004	2.000000000000000E+000	-1.7156017E-005	3.0192518E-007
2	1	0	1	1	4.023499898357841E+002	-3.0510616E-001	-3.0528450E-001	-9.347844133066646E-004	2.000000000000000E+000	-1.7167904E-005	2.8537519E-007
2	1	0	0	1	4.023633898354456E+002	-3.0175740E-001	-3.0196622E-001	-9.042642581031605E-004	2.000000000000000E+000	-1.7179493E-005	2.7305725E-007
2	1	0	0	1	4.023765898351121E+002	-2.9845867E-001	-2.9865560E-001	-8.673562227209525E-004	2.000000000000000E+000	-1.7190445E-005	2.5904080E-007
2	1	0	1	1	4.023899898347736E+002	-2.9510993E-001	-2.9526535E-001	-8.263122561654890E-004	2.000000000000000E+000	-1.7201022E-005	2.4398136E-007
2	1	0	0	1	4.024033898344351E+002	-2.9176122E-001	-2.9191929E-001	-7.945074072444585E-004	2.000000000000000E+000	-1.7211145E-005	2.3193203E-007
2	1	0	0	1	4.024165898341016E+002	-2.8846246E-001	-2.8861767E-001	-7.594987274059219E-004	2.000000000000000E+000	-1.7220660E-005	2.1920475E-007
2	1	0	1	1	4.024299898337631E+002	-2.8511375E-001	-2.8528017E-001	-7.195392685818876E-004	2.000000000000000E+000	-1.7229822E-005	2.0527028E-007
2	1	0	0	1	4.024433898334246E+002	-2.8176501E-001	-2.8190660E-001	-6.895390312870904E-004	2.000000000000000E+000	-1.7238524E-005	1.9438561E-007
2	1	0	0	1	4.024565898330911E+002	-2.7846628E-001	-2.7861750E-001	-6.539649014990177E-004	2.000000000000000E+000	-1.7246648E-005	1.8220607E-007
2	1	0	1	1	4.024699898327526E+002	-2.7511758E-001	-2.7529535E-001	-6.217772079177555E-004	2.000000000000000E+000	-1.7254442E-005	1.7117237E-007
2	1	0	0	1	4.024833898324141E+002	-2.7176884E-001	-2.7192509E-001	-5.861127855471054E-004	2.000000000000000E+000	-1.7261795E-005	1.5937877E-007
2	1	0	0	1	4.024965898320806E+002	-2.6847011E-001	-2.6864588E-001	-5.529859864004212E-004	2.000000000000000E+000	-1.7268565E-005	1.4855740E-007
2	1	0	1	1	4.025099898317421E+002	-2.6512140E-001	-2.6528534E-001	-5.174572512234772E-004	2.000000000000000E+000	-1.7274973E-005	1.3727383E-007
2	1	0	0	1	4.025232898314061E+002	-2.6178369E-001	-2.6192603E-001	-4.798229115217725E-004	2.000000000000000E+000	-1.7280878E-005	1.2567811E-007
2	1	0	0	1	4.025365898310702E+002	-2.5845727E-001	-2.5862235E-001	-4.538392366991188E-004	2.000000000000000E+000	-1.7286344E-005	1.1737297E-007
2	1	0	1	1	4.025499898307316E+002	-2.5510854E-001	-2.5528619E-001	-4.204200333510419E-004	2.000000000000000E+000	-1.7291457E-005	1.0732743E-007
2	1	0	1	1	4.025785898300092E+002	-2.4794878E-001	-2.4810261E-001	-3.205631774433866E-004	2.000000000000000E+000	-1.7301820E-005	7.9532562E-008
2	1	0	1	1	4.026071898292867E+002	-2.4081397E-001	-2.4091601E-001	-2.288208098207177E-004	2.000000000000000E+000	-1.7311211E-005	5.5126598E-008
2	1	0	0	1	4.026205898289481E+002	-2.3746526E-001	-2.3757558E-001	-1.978913865248906E-004	2.000000000000000E+000	-1.7313989E-005	4.7014161E-008
2	1	0	1	1	4.026339898286096E+002	-2.3411654E-001	-2.3422211E-001	-1.656218304472339E-004	2.000000000000000E+000	-1.7316352E-005	3.8792294E-008
2	1	0	1	1	4.026471898282762E+002	-2.3081779E-001	-2.3092568E-001	-1.343367510824264E-004	2.000000000000000E+000	-1.7318263E-005	3.1021806E-008
2	1	0	0	1	4.026605898279377E+002	-2.2746907E-001	-2.2758615E-001	-1.024674901818423E-004	2.000000000000000E+000	-1.7319760E-005	2.3320181E-008
2	1	0	1	1	4.026739898275991E+002	-2.2412035E-001	-2.2423483E-001	-6.720212818025703E-005	2.000000000000000E+000	-1.7320817E-005	1.5069059E-008
2	1	0	1	1	4.026871898272657E+002	-2.2082160E-001	-2.2091158E-001	-3.426761789289865E-005	2.000000000000000E+000	-1.7321423E-005	7.5701134E-009
2	1	0	0	1	4.027005898269272E+002	-2.1745624E-001	-2.1755914E-001	-2.571756041452177E-007	2.000000000000000E+000	-1.7321569E-005	5.5950904E-011
2	1	0	0	1	4.027137898265937E+002	-2.1415746E-001	-2.1426380E-001	2.938106908756155E-005	2.000000000000000E+000	-1.7321310E-005	6.2952994E-009
2	1	0	1	1	4.027271898262552E+002	-2.1080874E-001	-2.1089238E-001	6.752724025697431E-005	2.000000000000000E+000	-1.7320579E-005	1.4240980E-008
2	1	0	0	1	4.027405898259167E+002	-2.0746003E-001	-2.0755561E-001	9.494418029147621E-005	2.000000000000000E+000	-1.7319418E-005	1.9706198E-008
2	1	0	0	1	4.027537898255832E+002	-2.0416129E-001	-2.0422488E-001	1.296449735958857E-004	2.000000000000000E+000	-1.7317871E-005	2.6476730E-008
2	1	0	1	1	4.027671898252447E+002	-2.0081256E-001	-2.0088775E-001	1.619104083545155E-004	2.000000000000000E+000	-1.7315839E-005	3.2525818E-008
2	1	0	0	1	4.027805898249062E+002	-1.9746384E-001	-1.9752999E-001	1.945659065471428E-004	2.000000000000000E+000	-1.7313372E-005	3.8432599E-008
2	1	0	0	1	4.027937898245727E+002	-1.9416510E-001	-1.9424605E-001	2.254153070516115E-004	2.000000000000000E+000	-1.7310533E-005	4.3786034E-008
2	1	0	1	1	4.028071898242342E+002	-1.9081637E-001	-1.9089918E-001	2.560076179646690E-004	2.000000000000000E+000	-1.7307217E-005	4.8871645E-008
2	1	0	0	1	4.028205898238957E+002	-1.8746766E-001	-1.8756044E-001	2.928283359021105E-004	2.000000000000000E+000	-1.7303460E-005	5.4923010E-008
2	1	0	0	1	4.028337898235623E+002	-1.8416892E-001	-1.8424889E-001	3.235387576157544E-004	2.000000000000000E+000	-1.7299322E-005	5.9611658E-008
2	1	0	1	1	4.028471898232237E+002	-1.8082020E-001	-1.8089850E-001	3.585153078158035E-004	2.000000000000000E+000	-1.7294669E-005	6.4854881E-008
2	1	0	0	1	4.028605898228852E+002	-1.7747144E-001	-1.7755081E-001	3.933528154940777E-004	2.000000000000000E+000	-1.7289549E-005	6.9840112E-008
2	1	0	0	1	4.028737898225518E+002	-1.7415605E-001	-1.7423719E-001	4.266110930631027E-004	2.000000000000000E+000	-1.7284065E-005	7.4331517E-008
2	1	0	1	1	4.028871898222133E+002	-1.7080733E-001	-1.7087892E-001	4.582126040531889E-004	2.000000000000000E+000	-1.7278053E-005	7.8298875E-008
2	1	0	1	1	4.029003898218798E+002	-1.6750859E-001	-1.6758804E-001	4.941280978275459E-004	2.000000000000000E+000	-1.7271703E-005	8.2809962E-008
2	1	0	0	1	4.029137898215413E+002	-1.6415986E-001	-1.6423534E-001	5.275496635931635E-004	2.000000000000000E+000	-1.7264769E-005	8.6642295E-008
2	1	0	1	1	4.029271898212028E+002	-1.6081114E-001	-1.6088390E-001	5.612265577989682E-004	2.000000000000000E+000	-1.7257395E-005	9.0292318E-008
2	1	0	1	1	4.029403898208693E+002	-1.5751240E-001	-1.5756509E-001	5.966001859127991E-004	2.000000000000000E+000	-1.7249682E-005	9.4003362E-008
2	1	0	0	1	4.029537898205308E+002	-1.5416367E-001	-1.5422918E-001	6.300488205195319E-004	2.000000000000000E+000	-1.7241375E-005	9.7171913E-008
2	1	0	1	1	4.029671898201923E+002	-1.5081495E-001	-1.5087996E-001	6.644568822543502E-004	2.000000000000000E+000	-1.7232627E-005	1.0025323E-007
2	1	0	1	1	4.029803898198588E+002	-1.4751621E-001	-1.4757738E-001	6.969243866731438E-004	2.000000000000000E+000	-1.7223565E-005	1.0285027E-007
2	1	0	0	1	4.029937898195203E+002	-1.4416750E-001	-1.4421505E-001	7.344168978534087E-004	2.000000000000000E+000	-1.7213895E-005	1.0591397E-007
2	1	0	1	1	4.030071898191818E+002	-1.4081877E-001	-1.4087699E-001	7.673546462127825E-004	2.000000000000000E+000	-1.7203763E-005	1.0810262E-007
2	1	0	1	1	4.030203898188483E+002	-1.3752003E-001	-1.3756667E-001	8.019854170192471E-004	2.000000000000000E+000	-1.7193335E-005	1.1032646E-007
2	1	0	0	1	4.030337898185098E+002	-1.3417131E-001	-1.3420358E-001	8.376764409755797E-004	2.000000000000000E+000	-1.7182268E-005	1.1241918E-007
2	1	0	1	1	4.030470898181738E+002	-1.3083358E-001	-1.3085645E-001	8.703731364324094E-004	2.000000000000000E+000	-1.7170834E-005	1.1389394E-007
2	1	0	1	1	4.030603898178379E+002	-1.2750717E-001	-1.2755404E-001	9.040282611042366E-004	2.000000000000000E+000	-1.7158949E-005	1.1531246E-007
2	1	0	0	1	4.030737898174993E+002	-1.2415845E-001	-1.2417995E-001	9.415119061436106E-004	2.000000000000000E+000	-1.7146498E-005	1.1691690E-007
2	1	0	0	1	4.030869898171659E+002	-1.2085970E-001	-1.2086502E-001	9.733186959541241E-004	2.000000000000000E+000	-1.7133791E-005	1.1764019E-007
2	1	0	1	1	4.031156898164409E+002	-1.1367520E-001	-1.1375434E-001	1.025146816226114E-003	2.000000000000000E+000	-1.7104421E-005	1.1661490E-007
2	1	0	1	1	4.031443898157158E+002	-1.0651517E-001	-1.0661971E-001	1.070235606973967E-003	2.000000000000000E+000	-1.7074015E-005	1.1410821E-007
2	1	0	0	1	4.031577898153773E+002	-1.0316645E-001	-1.0327683E-001	1.107862017261142E-003	2.000000000000000E+000	-1.7058683E-005	1.1441648E-007
2	1	0	0	1	4.031709898150439E+002	-9.9867709E-002	-9.9995948E-002	1.139300493302166E-003	2.000000000000000E+000	-1.7043107E-005	1.1392543E-007
2	1	0	1	1	4.031843898147054E+002	-9.6518986E-002	-9.6638337E-002	1.178918648833535E-003	2.000000000000000E+000	-1.7026819E-005	1.1392873E-007
2	1	0	0	1	4.031977898143668E+002	-9.3170263E-002	-9.3282185E-002	1.213039247345981E-003	2.000000000000000E+000	-1.7010052E-005	1.1315495E-007
2	1	0	0	1	4.032109898140334E+002	-8.9871518E-002	-8.9976840E-002	1.249691833279745E-003	2.000000000000000E+000	-1.6993043E-005	1.1244332E-007
2	1	0	1	1	4.032243898136949E+002	-8.6506136E-002	-8.6632721E-002	1.285965492388644E-003	2.000000000000000E+000	-1.6975306E-005	1.1140669E-007
2	1	0	1	1	4.032375898133614E+002	-8.3207399E-002	-8.3337225E-002	1.314834814077887E-003	2.000000000000000E+000	-1.6957392E-005	1.0957469E-007
2	1	0	0	1	4.032509898130229E+002	-7.9858668E-002	-7.9987191E-002	1.356839579299659E-003	2.000000000000000E+000	-1.6938740E-005	1.0852979E-007
2	1	0	1	1	4.032643898126844E+002	-7.6509945E-002	-7.6655410E-002	1.389554563310316E-003	2.000000000000000E+000	-1.6919617E-005	1.0651687E-007
2	1	0	1	1	4.032775898123509E+002	-7.3211201E-002	-7.3333018E-002	1.424826976462006E-003	2.000000000000000E+000	-1.6900300E-005	1.0448686E-007
2	1	0	0	1	4.032909898120124E+002	-6.9862477E-002	-6.9988646E-002	1.456237206851556E-003	2.000000000000000E+000	-1.6880216E-005	1.0192007E-007
2	1	0	1	1	4.033043898116739E+002	-6.6513762E-002	-6.6652164E-002	1.491005180610552E-003	2.000000000000000E+000	-1.6859716E-005	9.9378724E-008
2	1	0	1	1	4.033175898113404E+002	-6.3215017E-002	-6.3354246E-002	1.524120522506365E-003	2.000000000000000E+000	-1.6839076E-005	9.6559504E-008
2	1	0	0	1	4.033309898110019E+002	-5.9866287E-002	-6.0023770E-002	1.558922619890130E-003	2.000000000000000E+000	-1.6817668E-005	9.3572410E-008
2	1	0	1	1	4.033443898106634E+002	-5.6517567E-002	-5.6659885E-002	1.590627329071347E-003	2.000000000000000E+000	-1.6795817E-005	9.0124765E-008
2	1	0	1	1	4.033575898103300E+002	-5.3218827E-002	-5.3369537E-002	1.624833703388303E-003	2.000000000000000E+000	-1.6773851E-005	8.6716625E-008
2	1	0	0	1	4.033709898099914E+002	-4.9870100E-002	-5.0015178E-002	1.654219405322191E-003	2.000000000000000E+000	-1.6751130E-005	8.2736079E-008
2	1	0	1	1	4.033843898096529E+002	-4.6521381E-002	-4.6670429E-002	1.686382259999342E-003	2.000000000000000E+000	-1.6728018E-005	7.8704183E-008
2	1	0	1	1	4.033975898093195E+002	-4.3205976E-002	-4.3345202E-002	1.715573074559665E-003	2.000000000000000E+000	-1.6704829E-005	7.4361864E-008
2	1	0	0	1	4.034109898089810E+002	-3.9857253E-002	-3.9978638E-002	1.746955925156933E-003	2.000000000000000E+000	-1.6680891E-005	6.9840922E-008
2	1	0	0	1	4.034241898086475E+002	-3.6558516E-002	-3.6695033E-002	1.767343298929022E-003	2.000000000000000E+000	-1.6656955E-005	6.4852721E-008
2	1	0	1	1	4.034375898083090E+002	-3.3209793E-002	-3.3336449E-002	1.794328010257433E-003	2.000000000000000E+000	-1.6632324E-005	5.9816522E-008
2	1	0	0	1	4.034509898079705E+002	-2.9861065E-002	-2.9970208E-002	1.822437317292099E-003	2.000000000000000E+000	-1.6607348E-005	5.4618827E-008
2	1	0	0	1	4.034641898076370E+002	-2.6562324E-002	-2.6689555E-002	1.841622574273873E-003	2.000000000000000E+000	-1.6582428E-005	4.9152089E-008
2	1	0	1	1	4.034775898072985E+002	-2.3213601E-002	-2.3335716E-002	1.866729528966167E-003	2.000000000000000E+000	-1.6556818E-005	4.3561471E-008
2	1	0	0	1	4.034909898069600E+002	-1.9864876E-002	-2.0013601E-002	1.886415818595798E-003	2.000000000000000E+000	-1.6530936E-005	3.7753974E-008
2	1	0	0	1	4.035041898066265E+002	-1.6566133E-002	-1.6715813E-002	1.905632253207536E-003	2.000000000000000E+000	-1.6505157E-005	3.1854192E-008
2	1	0	1	1	4.035175898062880E+002	-1.3217410E-002	-1.3364576E-002	1.923056774992605E-003	2.000000000000000E+000	-1.6478733E-005	2.5700839E-008
2	1	0	0	1	4.035309898059495E+002	-9.8686861E-003	-1.0017217E-002	1.944208939615548E-003	2.000000000000000E+000	-1.6452072E-005	1.9475562E-008
2	1	0	0	1	4.035441898056160E+002	-6.5699439E-003	-6.6992384E-003	1.960728520518588E-003	2.000000000000000E+000	-1.6425565E-005	1.3135388E-008
2	1	0	1	1	4.035575898052775E+002	-3.2212203E-003	-3.3700680E-003	1.975891107455635E-003	2.000000000000000E+000	-1.6398453E-005	6.6588877E-009
2	1	0	0	1	4.035708898049415E+002	1.2972142E-004	-1.6007174E-005	1.993546075387244E-003	2.000000000000000E+000	-1.6371350E-005	3.1911040E-011
2	1	0	0	1	4.035841898046056E+002	3.4429040E-003	3.3385083E-003	2.006645756258266E-003	2.000000000000000E+000	-1.6344000E-005	6.6992034E-009
2	1	0	1	1	4.035975898042670E+002	6.7916261E-003	6.6933366E-003	2.012254615359168E-003	2.000000000000000E+000	-1.6316337E-005	1.3468697E-008
2	1	0	1	1	4.036107898039336E+002	1.0090367E-002	9.9826986E-003	2.025852448100016E-003	2.000000000000000E+000	-1.6288941E-005	2.0223474E-008
2	1	0	0	1	4.036241898035951E+002	1.3439088E-002	1.3344076E-002	2.035209887091905E-003	2.000000000000000E+000	-1.6260981E-005	2.7157995E-008
2	1	0	1	1	4.036375898032566E+002	1.6787810E-002	1.6700907E-002	2.043230618326355E-003	2.000000000000000E+000	-1.6232907E-005	3.4123804E-008
2	1	0	1	1	4.036507898029231E+002	2.0086553E-002	1.9994816E-002	2.051124535824379E-003	2.000000000000000E+000	-1.6205147E-005	4.1011859E-008
2	1	0	0	1	4.036641898025846E+002	2.3435270E-002	2.3345634E-002	2.055834585775712E-003	2.000000000000000E+000	-1.6176888E-005	4.7994764E-008
2	1	0	1	1	4.036775898022461E+002	2.6783995E-002	2.6683517E-002	2.060941486262083E-003	2.000000000000000E+000	-1.6148571E-005	5.4993166E-008
2	1	0	1	1	4.036907898019126E+002	3.0082736E-002	2.9968588E-002	2.067825098311011E-003	2.000000000000000E+000	-1.6120577E-005	6.1969800E-008
2	1	0	0	1	4.037041898015741E+002	3.3431455E-002	3.3321731E-002	2.073372219132980E-003	2.000000000000000E+000	-1.6092072E-005	6.9088351E-008
2	1	0	1	1	4.037175898012356E+002	3.6780179E-002	3.6690772E-002	2.076486153004636E-003	2.000000000000000E+000	-1.6063532E-005	7.6187881E-008
2	1	0	1	1	4.037307898009021E+002	4.0078919E-002	3.9953526E-002	2.076528057477847E-003	2.000000000000000E+000	-1.6035390E-005	8.2964618E-008
2	1	0	0	1	4.037441898005636E+002	4.3438751E-002	4.3352190E-002	2.084781361120093E-003	2.000000000000000E+000	-1.6006750E-005	9.0379835E-008
2	1	0	0	1	4.037573898002302E+002	4.6743046E-002	4.6674274E-002	2.085050146292317E-003	2.000000000000000E+000	-1.5978489E-005	9.7318200E-008
2	1	0	1	1	4.037707897998916E+002	5.0091766E-002	5.0016887E-002	2.083979258835217E-003	2.000000000000000E+000	-1.5949799E-005	1.0423415E-007
2	1	0	0	1	4.037841897995531E+002	5.3440493E-002	5.3369652E-002	2.087317919671889E-003	2.000000000000000E+000	-1.5921123E-005	1.1139943E-007
2	1	0	0	1	4.037973897992197E+002	5.6739237E-002	5.6675415E-002	2.088907200050016E-003	2.000000000000000E+000	-1.5892821E-005	1.1838969E-007
2	1	0	1	1	4.038107897988812E+002	6.0087953E-002	6.0019631E-002	2.086845976161093E-003	2.000000000000000E+000	-1.5864096E-005	1.2525173E-007
2	1	0	0	1	4.038241897985426E+002	6.3436672E-002	6.3370891E-002	2.085665311885053E-003	2.000000000000000E+000	-1.5835403E-005	1.3217047E-007
2	1	0	0	1	4.038373897982092E+002	6.6735409E-002	6.6644736E-002	2.087216629681487E-003	2.000000000000000E+000	-1.5807136E-005	1.3910200E-007
2	1	0	1	1	4.038507897978707E+002	7.0084140E-002	6.9998778E-002	2.085845950568915E-003	2.000000000000000E+000	-1.5778425E-005	1.4600667E-007
2	1	0	0	1	4.038641897975322E+002	7.3432855E-002	7.3352046E-002	2.087817014994976E-003	2.000000000000000E+000	-1.5749743E-005	1.5314565E-007
2	1	0	0	1	4.038773897971987E+002	7.6731600E-002	7.6643281E-002	2.087549987997293E-003	2.000000000000000E+000	-1.5721454E-005	1.5999667E-007
2	1	0	1	1	4.038907897968602E+002	8.0080315E-002	8.0003768E-002	2.086235487361903E-003	2.000000000000000E+000	-1.5692747E-005	1.6690670E-007
2	1	0	0	1	4.039041897965217E+002	8.3429046E-002	8.3338313E-002	2.085674840741878E-003	2.000000000000000E+000	-1.5664073E-005	1.7381662E-007
2	1	0	0	1	4.039173897961882E+002	8.6738892E-002	8.6638428E-002	2.084494124665085E-003	2.000000000000000E+000	-1.5635816E-005	1.8059730E-007
2	1	0	1	1	4.039307897958497E+002	9.0093166E-002	8.9986853E-002	2.084210552655150E-003	2.000000000000000E+000	-1.5607136E-005	1.8755155E-007
2	1	0	1	1	4.039439897955162E+002	9.3391910E-002	9.3300484E-002	2.083699669846180E-003	2.000000000000000E+000	-1.5578889E-005	1.9441019E-007
2	1	0	0	1	4.039573897951777E+002	9.6740626E-002	9.6637152E-002	2.085846784312798E-003	2.000000000000000E+000	-1.5550213E-005	2.0157029E-007
2	1	0	1	1	4.039667897949403E+002	9.9089749E-002	9.9002279E-002	2.086005070608118E-003	2.000000000000000E+000	-1.5530110E-005	2.0651926E-007
2	0	0	0	1	4.039705897948443E+002	9.9906117E-002	9.9837482E-002	2.044002432376145E-003	2.000000000000000E+000	-1.5522051E-005	2.0406806E-007
2	0	0	1	1	4.039779897946573E+002	9.8073460E-002	9.7958595E-002	1.455245239190446E-003	2.000000000000000E+000	-1.5511252E-005	1.4255377E-007
2	0	0	0	1	4.039913897943188E+002	9.4724730E-002	9.4592087E-002	1.244962576664778E-003	2.000000000000000E+000	-1.5494017E-005	1.1776361E-007
2	0	0	0	1	4.040045897939854E+002	9.1425985E-002	9.1303304E-002	1.130143658888807E-003	2.000000000000000E+000	-1.5479105E-005	1.0318585E-007
2	0	0	1	1	4.040179897936468E+002	8.8077262E-002	8.7936036E-002	1.033297737366311E-003	2.000000000000000E+000	-1.5465386E-005	9.0864106E-008
2	0	0	1	1	4.040311897933134E+002	8.4761865E-002	8.4635995E-002	9.486938973875859E-004	2.000000000000000E+000	-1.5453061E-005	8.0293653E-008
2	0	0	0	1	4.040445897929749E+002	8.1413150E-002	8.1289627E-002	8.733987345143185E-004	2.000000000000000E+000	-1.5441632E-005	7.0998254E-008
2	0	0	1	1	4.040579897926364E+002	7.8064427E-002	7.7952988E-002	8.009155764840317E-004	2.000000000000000E+000	-1.5431186E-005	6.2433763E-008
2	0	0	1	1	4.040711897923029E+002	7.4765682E-002	7.4643150E-002	7.317724926957057E-004	2.000000000000000E+000	-1.5421829E-005	5.4621804E-008
2	0	0	0	1	4.040845897919644E+002	7.1416959E-002	7.1306631E-002	6.707280793256769E-004	2.000000000000000E+000	-1.5413176E-005	4.7827360E-008
2	0	0	1	1	4.040979897916259E+002	6.8068244E-002	6.7946561E-002	6.109774801315235E-004	2.000000000000000E+000	-1.5405325E-005	4.1513818E-008
2	0	0	1	1	4.041111897912924E+002	6.4769499E-002	6.4662158E-002	5.554528935388383E-004	2.000000000000000E+000	-1.5398373E-005	3.5916784E-008
2	0	0	0	1	4.041245897909539E+002	6.1420776E-002	6.1333243E-002	4.999067883570928E-004	2.000000000000000E+000	-1.5392054E-005	3.0660903E-008
2	0	0	1	1	4.041379897906154E+002	5.8072053E-002	5.7975139E-002	4.475965922438275E-004	2.000000000000000E+000	-1.5386444E-005	2.5949475E-008
2	0	0	1	1	4.041511897902819E+002	5.4773308E-002	5.4662909E-002	3.973525804768637E-004	2.000000000000000E+000	-1.5381618E-005	2.1720448E-008
2	0	0	0	1	4.041645897899434E+002	5.1424596E-002	5.1310919E-002	3.466487135218212E-004	2.000000000000000E+000	-1.5377396E-005	1.7786864E-008
2	0	0	1	1	4.041779897896049E+002	4.8075870E-002	4.7950815E-002	2.998559542169866E-004	2.000000000000000E+000	-1.5373811E-005	1.4378338E-008
2	0	0	1	1	4.041911897892714E+002	4.4777129E-002	4.4662599E-002	2.506465239030653E-004	2.000000000000000E+000	-1.5370919E-005	1.1194525E-008
2	0	0	0	1	4.042045897889329E+002	4.1411743E-002	4.1265640E-002	2.060366174305283E-004	2.000000000000000E+000	-1.5368621E-005	8.5022327E-009
2	0	0	0	1	4.042177897885995E+002	3.8113005E-002	3.7958827E-002	1.661769652451364E-004	2.000000000000000E+000	-1.5366912E-005	6.3078827E-009
2	0	0	1	1	4.042311897882610E+002	3.4764282E-002	3.4634486E-002	1.205072686370084E-004	2.000000000000000E+000	-1.5365757E-005	4.1737072E-009
2	0	0	0	1	4.042445897879225E+002	3.1415559E-002	3.1264141E-002	7.834893576128075E-005	2.000000000000000E+000	-1.5365174E-005	2.4495121E-009
2	0	0	0	1	4.042577897875890E+002	2.8116820E-002	2.7957547E-002	3.724534956788266E-005	2.000000000000000E+000	-1.5365153E-005	1.0412886E-009
2	0	0	1	1	4.042711897872505E+002	2.4768099E-002	2.4614196E-002	-4.606826226029167E-006	2.000000000000000E+000	-1.5365687E-005	1.1339332E-010
2	0	0	0	1	4.042845897869120E+002	2.1419376E-002	2.1291865E-002	-4.213516921372691E-005	2.000000000000000E+000	-1.5366746E-005	8.9713631E-010
2	0	0	0	1	4.042977897865785E+002	1.8120633E-002	1.7986890E-002	-8.017570785815061E-005	2.000000000000000E+000	-1.5368294E-005	1.4421117E-009
2	0	0	1	1	4.043111897862400E+002	1.4771913E-002	1.4656132E-002	-1.190679805972645E-004	2.000000000000000E+000	-1.5370402E-005	1.7450761E-009
2	0	0	0	1	4.043245897859015E+002	1.1423191E-002	1.1288012E-002	-1.604563946475284E-004	2.000000000000000E+000	-1.5373029E-005	1.8112337E-009
2	0	0	0	1	4.043530897851815E+002	4.3001664E-003	4.0737293E-003	-2.797935694053969E-004	2.000000000000000E+000	-1.5380963E-005	1.1398033E-009
2	0	0	0	1	4.043817897844565E+002	-2.8880138E-003	-3.1414295E-003	-3.681338569979022E-004	2.000000000000000E+000	-1.5390080E-005	1.1564666E-009
2	0	0	1	1	4.043951897841180E+002	-6.2367371E-003	-6.4972439E-003	-4.026366747565471E-004	2.000000000000000E+000	-1.5395315E-005	2.6160287E-009
2	0	0	1	1	4.044083897837845E+002	-9.5354794E-003	-9.7964322E-003	-4.381366587368667E-004	2.000000000000000E+000	-1.5400941E-005	4.2921759E-009
2	0	0	0	1	4.044217897834460E+002	-1.2884203E-002	-1.3152375E-002	-4.733636452076294E-004	2.000000000000000E+000	-1.5407135E-005	6.2258563E-009
2	0	0	1	1	4.044351897831075E+002	-1.6232926E-002	-1.6491307E-002	-5.044694507508529E-004	2.000000000000000E+000	-1.5413762E-005	8.3193603E-009
2	0	0	1	1	4.044483897827740E+002	-1.9531669E-002	-1.9789252E-002	-5.377629368594058E-004	2.000000000000000E+000	-1.5420712E-005	1.0641926E-008
2	0	0	0	1	4.044617897824355E+002	-2.2880392E-002	-2.3133114E-002	-5.734888828657048E-004	2.000000000000000E+000	-1.5428244E-005	1.3266583E-008
2	0	0	1	1	4.044751897820970E+002	-2.6229115E-002	-2.6477324E-002	-6.053478506373704E-004	2.000000000000000E+000	-1.5436222E-005	1.6027991E-008
2	0	0	1	1	4.044883897817635E+002	-2.9527858E-002	-2.9778326E-002	-6.390458220393094E-004	2.000000000000000E+000	-1.5444504E-005	1.9029715E-008
2	0	0	0	1	4.045017897814250E+002	-3.2876581E-002	-3.3144820E-002	-6.714554390024850E-004	2.000000000000000E+000	-1.5453370E-005	2.2255270E-008
2	0	0	1	1	4.045151897810865E+002	-3.6225304E-002	-3.6503814E-002	-7.033928745942032E-004	2.000000000000000E+000	-1.5462660E-005	2.5676522E-008
2	0	0	1	1	4.045283897807531E+002	-3.9524049E-002	-3.9789900E-002	-7.366579652878270E-004	2.000000000000000E+000	-1.5472231E-005	2.9311547E-008
2	0	0	0	1	4.045417897804145E+002	-4.2872772E-002	-4.3159202E-002	-7.694965373149093E-004	2.000000000000000E+000	-1.5482419E-005	3.3210856E-008
2	0	0	0	1	4.045549897800811E+002	-4.6188176E-002	-4.6470724E-002	-7.999380015967800E-004	2.000000000000000E+000	-1.5492853E-005	3.7173699E-008
2	0	0	1	1	4.045683897797426E+002	-4.9536895E-002	-4.9822886E-002	-8.318026799416754E-004	2.000000000000000E+000	-1.5503867E-005	4.1442810E-008
2	0	0	0	1	4.045817897794041E+002	-5.2885622E-002	-5.3177141E-002	-8.628235228772835E-004	2.000000000000000E+000	-1.5515297E-005	4.5882487E-008
2	0	0	0	1	4.045949897790706E+002	-5.6184363E-002	-5.6498397E-002	-8.932724174832811E-004	2.000000000000000E+000	-1.5526954E-005	5.0468461E-008
2	0	0	1	1	4.046083897787321E+002	-5.9533086E-002	-5.9831090E-002	-9.225947160252362E-004	2.000000000000000E+000	-1.5539199E-005	5.5199848E-008
2	0	0	0	1	4.046217897783936E+002	-6.2881812E-002	-6.3172884E-002	-9.521208093145887E-004	2.000000000000000E+000	-1.5551836E-005	6.0148217E-008
2	0	0	0	1	4.046349897780601E+002	-6.6180557E-002	-6.6464126E-002	-9.839779597870003E-004	2.000000000000000E+000	-1.5564683E-005	6.5399234E-008
2	0	0	1	1	4.046636897773351E+002	-7.3365062E-002	-7.3603362E-002	-1.022986467272093E-003	2.000000000000000E+000	-1.5594087E-005	7.5295240E-008
2	0	0	1	1	4.046923897766101E+002	-8.0525078E-002	-8.0719464E-002	-1.063057349044052E-003	2.000000000000000E+000	-1.5624390E-005	8.5809418E-008
2	0	0	0	1	4.047057897762716E+002	-8.3873801E-002	-8.4050819E-002	-1.088928426457233E-003	2.000000000000000E+000	-1.5639547E-005	9.1525330E-008
2	0	0	0	1	4.047189897759381E+002	-8.7178096E-002	-8.7358378E-002	-1.123210445378695E-003	2.000000000000000E+000	-1.5654890E-005	9.8121845E-008
2	0	0	1	1	4.047323897755996E+002	-9.0537928E-002	-9.0685695E-002	-1.147136794881791E-003	2.000000000000000E+000	-1.5670848E-005	1.0402890E-007
2	0	0	1	1	4.047455897752661E+002	-9.3836680E-002	-9.4015442E-002	-1.180266050404393E-003	2.000000000000000E+000	-1.5686957E-005	1.1096324E-007
2	0	0	0	1	4.047589897749276E+002	-9.7185403E-002	-9.7355053E-002	-1.209265170427892E-003	2.000000000000000E+000	-1.5703714E-005	1.1772808E-007
2	0	0	1	1	4.047723897745891E+002	-1.0053412E-001	-1.0069229E-001	-1.237237106675414E-003	2.000000000000000E+000	-1.5720841E-005	1.2458024E-007
2	0	0	1	1	4.047855897742556E+002	-1.0383287E-001	-1.0399648E-001	-1.266195552696242E-003	2.000000000000000E+000	-1.5738104E-005	1.3167988E-007
2	0	0	0	1	4.047989897739171E+002	-1.0718159E-001	-1.0734351E-001	-1.292699468002762E-003	2.000000000000000E+000	-1.5755997E-005	1.3876290E-007
2	0	0	1	1	4.048123897735786E+002	-1.1053031E-001	-1.1067883E-001	-1.321861885758654E-003	2.000000000000000E+000	-1.5774254E-005	1.4630213E-007
2	0	0	1	1	4.048255897732452E+002	-1.1382905E-001	-1.1397145E-001	-1.352073978569021E-003	2.000000000000000E+000	-1.5792639E-005	1.5409783E-007
2	0	0	0	1	4.048389897729066E+002	-1.1717777E-001	-1.1733574E-001	-1.379426271927914E-003	2.000000000000000E+000	-1.5811700E-005	1.6185599E-007
2	0	0	1	1	4.048523897725681E+002	-1.2052650E-001	-1.2068306E-001	-1.408327447623172E-003	2.000000000000000E+000	-1.5831123E-005	1.6996127E-007
2	0	0	1	1	4.048655897722347E+002	-1.2382524E-001	-1.2399372E-001	-1.436647062943542E-003	2.000000000000000E+000	-1.5850635E-005	1.7813522E-007
2	0	0	0	1	4.048789897718962E+002	-1.2717398E-001	-1.2734029E-001	-1.467161908481604E-003	2.000000000000000E+000	-1.5870861E-005	1.8682881E-007
2	0	0	1	1	4.048922897715602E+002	-1.3050039E-001	-1.3068622E-001	-1.495940204011600E-003	2.000000000000000E+000	-1.5891306E-005	1.9549877E-007
2	0	0	1	1	4.049055897712242E+002	-1.3383810E-001	-1.3401128E-001	-1.522695445969981E-003	2.000000000000000E+000	-1.5912132E-005	2.0405837E-007
2	0	0	0	1	4.049189897708857E+002	-1.3718681E-001	-1.3735715E-001	-1.551758688477400E-003	2.000000000000000E+000	-1.5933478E-005	2.1314514E-007
2	0	0	0	1	4.049321897705522E+002	-1.4048555E-001	-1.4066681E-001	-1.581306429099833E-003	2.000000000000000E+000	-1.5954894E-005	2.2243734E-007
2	0	0	1	1	4.049455897702137E+002	-1.4383428E-001	-1.4401829E-001	-1.606287186445515E-003	2.000000000000000E+000	-1.5977012E-005	2.3133474E-007
2	0	0	0	1	4.049589897698752E+002	-1.4718302E-001	-1.4738573E-001	-1.637437974730144E-003	2.000000000000000E+000	-1.5999494E-005	2.4133499E-007
2	0	0	0	1	4.049721897695417E+002	-1.5048175E-001	-1.5065360E-001	-1.667383355702946E-003	2.000000000000000E+000	-1.6022041E-005	2.5119729E-007
2	0	0	1	1	4.049855897692032E+002	-1.5383047E-001	-1.5400845E-001	-1.695524616004848E-003	2.000000000000000E+000	-1.6045333E-005	2.6112511E-007
2	0	0	0	1	4.049989897688647E+002	-1.5717919E-001	-1.5735811E-001	-1.727898436163541E-003	2.000000000000000E+000	-1.6069023E-005	2.7189884E-007
2	0	0	0	1	4.050121897685312E+002	-1.6047794E-001	-1.6065007E-001	-1.760628804812672E-003	2.000000000000000E+000	-1.6092803E-005	2.8284515E-007
2	0	0	1	1	4.050255897681927E+002	-1.6382667E-001	-1.6401888E-001	-1.789352716979104E-003	2.000000000000000E+000	-1.6117336E-005	2.9348763E-007
2	0	0	0	1	4.050389897678542E+002	-1.6717538E-001	-1.6737297E-001	-1.823405783438325E-003	2.000000000000000E+000	-1.6142283E-005	3.0518885E-007
2	0	0	0	1	4.050521897675208E+002	-1.7047413E-001	-1.7067489E-001	-1.852197528195459E-003	2.000000000000000E+000	-1.6167300E-005	3.1612362E-007
2	0	0	1	1	4.050655897671822E+002	-1.7382285E-001	-1.7402627E-001	-1.887080271909420E-003	2.000000000000000E+000	-1.6193113E-005	3.2840154E-007
2	0	0	1	1	4.050787897668488E+002	-1.7713827E-001	-1.7733710E-001	-1.920937618120261E-003	2.000000000000000E+000	-1.6218984E-005	3.4065349E-007
2	0	0	0	1	4.050921897665103E+002	-1.8048698E-001	-1.8068637E-001	-1.956747663623696E-003	2.000000000000000E+000	-1.6245720E-005	3.5355762E-007
2	0	0	1	1	4.051055897661718E+002	-1.8383570E-001	-1.8403405E-001	-1.987942955070642E-003	2.000000000000000E+000	-1.6272888E-005	3.6584919E-007
2	0	0	1	1	4.051187897658383E+002	-1.8713444E-001	-1.8732706E-001	-2.022100182754612E-003	2.000000000000000E+000	-1.6300091E-005	3.7879408E-007
2	0	0	0	1	4.051321897654998E+002	-1.9048317E-001	-1.9068004E-001	-2.057038975696431E-003	2.000000000000000E+000	-1.6328180E-005	3.9223627E-007
2	0	0	1	1	4.051455897651613E+002	-1.9383188E-001	-1.9402188E-001	-2.091431518076406E-003	2.000000000000000E+000	-1.6356698E-005	4.0578348E-007
2	0	0	1	1	4.051587897648278E+002	-1.9713062E-001	-1.9731906E-001	-2.123374991606398E-003	2.000000000000000E+000	-1.6385255E-005	4.1898235E-007
2	0	0	0	1	4.051721897644893E+002	-2.0047936E-001	-2.0067653E-001	-2.162667903667157E-003	2.000000000000000E+000	-1.6414733E-005	4.3399669E-007
2	0	0	1	1	4.051855897641508E+002	-2.0382807E-001	-2.0404074E-001	-2.196409520628445E-003	2.000000000000000E+000	-1.6444688E-005	4.4815701E-007
2	0	0	1	1	4.051987897638173E+002	-2.0712683E-001	-2.0732938E-001	-2.232412852976675E-003	2.000000000000000E+000	-1.6474658E-005	4.6284478E-007
2	0	0	0	1	4.052121897634788E+002	-2.1047556E-001	-2.1066737E-001	-2.270285683597544E-003	2.000000000000000E+000	-1.6505572E-005	4.7827513E-007
2	0	0	1	1	4.052255897631403E+002	-2.1382427E-001	-2.1403787E-001	-2.301660779186115E-003	2.000000000000000E+000	-1.6536955E-005	4.9264258E-007
2	0	0	1	1	4.052387897628068E+002	-2.1712303E-001	-2.1733764E-001	-2.336511879497663E-003	2.000000000000000E+000	-1.6568316E-005	5.0781199E-007
2	0	0	0	1	4.052521897624683E+002	-2.2048840E-001	-2.2068834E-001	-2.374349393459038E-003	2.000000000000000E+000	-1.6600628E-005	5.2399122E-007
2	0	0	0	1	4.052653897621349E+002	-2.2378713E-001	-2.2400609E-001	-2.408020371745395E-003	2.000000000000000E+000	-1.6632943E-005	5.3941125E-007
2	0	0	1	1	4.052787897617964E+002	-2.2713585E-001	-2.2735922E-001	-2.441122015261497E-003	2.000000000000000E+000	-1.6666187E-005	5.5501158E-007
2	0	0	0	1	4.052921897614578E+002	-2.3048458E-001	-2.3069869E-001	-2.478065832282383E-003	2.000000000000000E+000	-1.6699882E-005	5.7168654E-007
2	0	0	0	1	4.053053897611244E+002	-2.3378330E-001	-2.3397100E-001	-2.508615892404316E-003	2.000000000000000E+000	-1.6733522E-005	5.8694337E-007
2	0	0	1	1	4.053187897607859E+002	-2.3713203E-001	-2.3732297E-001	-2.544327667500412E-003	2.000000000000000E+000	-1.6768134E-005	6.0382740E-007
2	0	0	0	1	4.053321897604474E+002	-2.4048075E-001	-2.4068768E-001	-2.578780406181772E-003	2.000000000000000E+000	-1.6803189E-005	6.2068068E-007
2	0	0	0	1	4.053453897601139E+002	-2.4377950E-001	-2.4400519E-001	-2.613645582449753E-003	2.000000000000000E+000	-1.6838208E-005	6.3774309E-007
2	0	0	1	1	4.053587897597754E+002	-2.4712822E-001	-2.4734469E-001	-2.649397494790005E-003	2.000000000000000E+000	-1.6874230E-005	6.5531441E-007
2	0	0	0	1	4.053721897594369E+002	-2.5047699E-001	-2.5069335E-001	-2.684804806944562E-003	2.000000000000000E+000	-1.6910702E-005	6.7306269E-007
2	0	0	0	1	4.053853897591034E+002	-2.5377572E-001	-2.5399163E-001	-2.716102444295151E-003	2.000000000000000E+000	-1.6947071E-005	6.8986731E-007
2	0	0	1	1	4.053987897587649E+002	-2.5712442E-001	-2.5731125E-001	-2.751677304493369E-003	2.000000000000000E+000	-1.6984461E-005	7.0803753E-007
2	0	0	0	1	4.054121897584264E+002	-2.6047316E-001	-2.6065511E-001	-2.783248805149519E-003	2.000000000000000E+000	-1.7022290E-005	7.2546800E-007
2	0	0	0	1	4.054253897580929E+002	-2.6378858E-001	-2.6397935E-001	-2.826145152660811E-003	2.000000000000000E+000	-1.7060051E-005	7.4604395E-007
2	0	0	1	1	4.054387897577544E+002	-2.6713726E-001	-2.6733139E-001	-2.857916491797764E-003	2.000000000000000E+000	-1.7098866E-005	7.6401079E-007
2	0	0	1	1	4.054519897574210E+002	-2.7043602E-001	-2.7063093E-001	-2.892840059222294E-003	2.000000000000000E+000	-1.7137550E-005	7.8289196E-007
2	0	0	0	1	4.054653897570824E+002	-2.7378476E-001	-2.7397341E-001	-2.927351151326238E-003	2.000000000000000E+000	-1.7177297E-005	8.0201636E-007
2	0	0	1	1	4.054787897567439E+002	-2.7713346E-001	-2.7732503E-001	-2.963282310207031E-003	2.000000000000000E+000	-1.7217513E-005	8.2179236E-007
2	0	0	1	1	4.054919897564105E+002	-2.8043222E-001	-2.8061751E-001	-3.001265224884260E-003	2.000000000000000E+000	-1.7257606E-005	8.4220756E-007
2	0	0	0	1	4.055053897560720E+002	-2.8378093E-001	-2.8396082E-001	-3.035239443478412E-003	2.000000000000000E+000	-1.7298798E-005	8.6188908E-007
2	0	0	1	1	4.055187897557335E+002	-2.8712964E-001	-2.8730541E-001	-3.075949015409502E-003	2.000000000000000E+000	-1.7340488E-005	8.8373679E-007
2	0	0	1	1	4.055319897554000E+002	-2.9042840E-001	-2.9062033E-001	-3.113440881588752E-003	2.000000000000000E+000	-1.7382074E-005	9.0482922E-007
2	0	0	0	1	4.055453897550615E+002	-2.9377714E-001	-2.9395267E-001	-3.146632044232905E-003	2.000000000000000E+000	-1.7424769E-005	9.2496089E-007
2	0	0	1	1	4.055587897547230E+002	-2.9712585E-001	-2.9732141E-001	-3.192833576344527E-003	2.000000000000000E+000	-1.7468003E-005	9.4929777E-007
2	0	0	1	1	4.055719897543895E+002	-3.0042461E-001	-3.0063698E-001	-3.229698691413638E-003	2.000000000000000E+000	-1.7511129E-005	9.7096688E-007
2	0	0	0	1	4.055853897540510E+002	-3.0377331E-001	-3.0398574E-001	-3.266466688182833E-003	2.000000000000000E+000	-1.7555412E-005	9.9295926E-007
2	0	0	1	1	4.055986897537150E+002	-3.0711100E-001	-3.0733007E-001	-3.311331521263894E-003	2.000000000000000E+000	-1.7599890E-005	1.0176717E-006
2	0	0	1	1	4.056119897533790E+002	-3.1043744E-001	-3.1065267E-001	-3.350325021650238E-003	2.000000000000000E+000	-1.7644932E-005	1.0407874E-006
2	0	0	0	1	4.056253897530405E+002	-3.1378615E-001	-3.1399867E-001	-3.387579046789650E-003	2.000000000000000E+000	-1.7690798E-005	1.0636953E-006
2	0	0	0	1	4.056385897527070E+002	-3.1708491E-001	-3.1729305E-001	-3.431829478217366E-003	2.000000000000000E+000	-1.7736553E-005	1.0888956E-006
2	0	0	1	1	4.056519897523685E+002	-3.2043362E-001	-3.2062334E-001	-3.471925655160003E-003	2.000000000000000E+000	-1.7783555E-005	1.1131804E-006
2	0	0	0	1	4.056653897520300E+002	-3.2378232E-001	-3.2396966E-001	-3.514946258635774E-003	2.000000000000000E+000	-1.7831113E-005	1.1387359E-006
2	0	0	0	1	4.056785897516966E+002	-3.2708105E-001	-3.2726920E-001	-3.559983163783427E-003	2.000000000000000E+000	-1.7878547E-005	1.1650728E-006
2	0	0	1	1	4.056919897513581E+002	-3.3042979E-001	-3.3064663E-001	-3.604246801175260E-003	2.000000000000000E+000	-1.7927307E-005	1.1917321E-006
2	0	0	0	1	4.057053897510195E+002	-3.3377850E-001	-3.3398995E-001	-3.649874584779241E-003	2.000000000000000E+000	-1.7976638E-005	1.2190214E-006
2	0	0	0	1	4.057185897506861E+002	-3.3707726E-001	-3.3729523E-001	-3.692795687958175E-003	2.000000000000000E+000	-1.8025836E-005	1.2455624E-006
2	0	0	1	1	4.057319897503476E+002	-3.4042597E-001	-3.4067205E-001	-3.742789965003289E-003	2.000000000000000E+000	-1.8076424E-005	1.2750639E-006
2	0	0	0	1	4.057453897500091E+002	-3.4377474E-001	-3.4400803E-001	-3.787526368271036E-003	2.000000000000000E+000	-1.8127630E-005	1.3029395E-006
2	0	0	0	1	4.057585897496756E+002	-3.4707344E-001	-3.4730130E-001	-3.831451089414854E-003	2.000000000000000E+000	-1.8178665E-005	1.3306679E-006
2	0	0	1	1	4.057719897493371E+002	-3.5042778E-001	-3.5068458E-001	-3.886748387594709E-003	2.000000000000000E+000	-1.8231131E-005	1.3630228E-006
2	0	0	1	1	4.057851897490036E+002	-3.5373759E-001	-3.5397923E-001	-3.930893839040238E-003	2.000000000000000E+000	-1.8283466E-005	1.3914548E-006
2	0	0	0	1	4.057985897486651E+002	-3.5708633E-001	-3.5731268E-001	-3.976383138878076E-003	2.000000000000000E+000	-1.8337227E-005	1.4208122E-006
2	0	0	1	1	4.058119897483266E+002	-3.6043507E-001	-3.6067837E-001	-4.028163363444835E-003	2.000000000000000E+000	-1.8391622E-005	1.4528714E-006
2	0	0	1	1	4.058251897479931E+002	-3.6373383E-001	-3.6395296E-001	-4.075629605863950E-003	2.000000000000000E+000	-1.8445868E-005	1.4833374E-006
2	0	0	0	1	4.058385897476546E+002	-3.6708254E-001	-3.6729205E-001	-4.133018117095669E-003	2.000000000000000E+000	-1.8501643E-005	1.5180246E-006
2	0	0	1	1	4.058519897473161E+002	-3.7043121E-001	-3.7063894E-001	-4.185423761636123E-003	2.000000000000000E+000	-1.8558110E-005	1.5512810E-006
2	0	0	1	1	4.058651897469827E+002	-3.7373000E-001	-3.7394330E-001	-4.240193299240969E-003	2.000000000000000E+000	-1.8614464E-005	1.5855919E-006
2	0	0	0	1	4.058785897466441E+002	-3.7707871E-001	-3.7730500E-001	-4.293837527135708E-003	2.000000000000000E+000	-1.8672406E-005	1.6200863E-006
2	0	0	1	1	4.058919897463056E+002	-3.8042745E-001	-3.8066360E-001	-4.349752717219726E-003	2.000000000000000E+000	-1.8731045E-005	1.6557925E-006
2	0	0	1	1	4.059051897459722E+002	-3.8372618E-001	-3.8397986E-001	-4.408491274302314E-003	2.000000000000000E+000	-1.8789586E-005	1.6927719E-006
2	0	0	0	1	4.059185897456337E+002	-3.8707492E-001	-3.8732988E-001	-4.455878033372239E-003	2.000000000000000E+000	-1.8849734E-005	1.7258947E-006
2	0	0	1	1	4.059319897452951E+002	-3.9042366E-001	-3.9067277E-001	-4.514961082531938E-003	2.000000000000000E+000	-1.8910594E-005	1.7638723E-006
2	0	0	1	1	4.059451897449617E+002	-3.9372793E-001	-3.9398864E-001	-4.578090148808986E-003	2.000000000000000E+000	-1.8971363E-005	1.8037155E-006
2	0	0	0	1	4.059585897446232E+002	-3.9708772E-001	-3.9734814E-001	-4.634681504568194E-003	2.000000000000000E+000	-1.9033856E-005	1.8415820E-006
2	0	0	0	1	4.059717897442897E+002	-4.0038651E-001	-4.0063494E-001	-4.687283629068072E-003	2.000000000000000E+000	-1.9096125E-005	1.8778896E-006
2	0	0	1	1	4.059851897439512E+002	-4.0373519E-001	-4.0396860E-001	-4.747837434196198E-003	2.000000000000000E+000	-1.9160118E-005	1.9179772E-006
2	0	0	0	1	4.059985897436127E+002	-4.0708393E-001	-4.0730774E-001	-4.809413540513351E-003	2.000000000000000E+000	-1.9224901E-005	1.9589113E-006
2	0	0	0	1	4.060117897432792E+002	-4.1038266E-001	-4.1060475E-001	-4.865895368877493E-003	2.000000000000000E+000	-1.9289526E-005	1.9979598E-006
2	0	0	1	1	4.060251897429407E+002	-4.1373140E-001	-4.1397673E-001	-4.932413776926600E-003	2.000000000000000E+000	-1.9355963E-005	2.0419045E-006
2	0	0	0	1	4.060385897426022E+002	-4.1708010E-001	-4.1731927E-001	-4.992999060272674E-003	2.000000000000000E+000	-1.9423214E-005	2.0836746E-006
2	0	0	0	1	4.060517897422687E+002	-4.2037886E-001	-4.2061931E-001	-5.051143815782963E-003	2.000000000000000E+000	-1.9490251E-005	2.1246087E-006
2	0	0	1	1	4.060651897419302E+002	-4.2372757E-001	-4.2396963E-001	-5.117997838877078E-003	2.000000000000000E+000	-1.9559158E-005	2.1698756E-006
2	0	0	0	1	4.060785897415917E+002	-4.2707631E-001	-4.2731237E-001	-5.178416994830404E-003	2.000000000000000E+000	-1.9628880E-005	2.2128017E-006
2	0	0	0	1	4.060917897412583E+002	-4.3037507E-001	-4.3059155E-001	-5.238029644573932E-003	2.000000000000000E+000	-1.9698364E-005	2.2554514E-006
2	0	0	1	1	4.061051897409197E+002	-4.3372378E-001	-4.3394548E-001	-5.307476103896779E-003	2.000000000000000E+000	-1.9769783E-005	2.3031553E-006
2	0	0	0	1	4.061184897405838E+002	-4.3705022E-001	-4.3727827E-001	-5.369426595917090E-003	2.000000000000000E+000	-1.9841549E-005	2.3479336E-006
2	0	0	0	1	4.061317897402478E+002	-4.4038790E-001	-4.4062451E-001	-5.442780229734351E-003	2.000000000000000E+000	-1.9914220E-005	2.3982223E-006
2	0	0	1	1	4.061451897399093E+002	-4.4373661E-001	-4.4397631E-001	-5.501890909201571E-003	2.000000000000000E+000	-1.9988294E-005	2.4427093E-006
2	0	0	1	1	4.061583897395758E+002	-4.4703537E-001	-4.4726402E-001	-5.567478630554332E-003	2.000000000000000E+000	-2.0062103E-005	2.4901328E-006
2	0	0	0	1	4.061717897392373E+002	-4.5038408E-001	-4.5059037E-001	-5.630780693576920E-003	2.000000000000000E+000	-2.0137884E-005	2.5371755E-006
2	0	0	1	1	4.061851897388988E+002	-4.5373282E-001	-4.5393774E-001	-5.700258981677394E-003	2.000000000000000E+000	-2.0214544E-005	2.5875627E-006
2	0	0	1	1	4.061983897385653E+002	-4.5703158E-001	-4.5726454E-001	-5.770165697544516E-003	2.000000000000000E+000	-2.0290987E-005	2.6384921E-006
2	0	0	0	1	4.062117897382268E+002	-4.6038029E-001	-4.6060339E-001	-5.841702965456830E-003	2.000000000000000E+000	-2.0369527E-005	2.6907082E-006
2	0	0	1	1	4.062251897378883E+002	-4.6372902E-001	-4.6394652E-001	-5.900715596241446E-003	2.000000000000000E+000	-2.0448915E-005	2.7376166E-006
2	0	0	1	1	4.062383897375548E+002	-4.6702772E-001	-4.6727106E-001	-5.974675017003189E-003	2.000000000000000E+000	-2.0528041E-005	2.7917927E-006
2	0	0	0	1	4.062517897372163E+002	-4.7037646E-001	-4.7062185E-001	-6.044601980061577E-003	2.000000000000000E+000	-2.0609330E-005	2.8447218E-006
2	0	0	1	1	4.062651897368778E+002	-4.7372517E-001	-4.7396579E-001	-6.106449904210512E-003	2.000000000000000E+000	-2.0691483E-005	2.8942484E-006
2	0	0	1	1	4.062783897365443E+002	-4.7702393E-001	-4.7726995E-001	-6.179607085646736E-003	2.000000000000000E+000	-2.0773321E-005	2.9493408E-006
2	0	0	0	1	4.062917897362058E+002	-4.8037270E-001	-4.8061270E-001	-6.248626825274373E-003	2.000000000000000E+000	-2.0857366E-005	3.0031695E-006
2	0	0	0	1	4.063049897358724E+002	-4.8368803E-001	-4.8393455E-001	-6.323064293246680E-003	2.000000000000000E+000	-2.0941081E-005	3.0599492E-006
2	0	0	1	1	4.063183897355339E+002	-4.8703676E-001	-4.8726982E-001	-6.390545716567442E-003	2.000000000000000E+000	-2.1027015E-005	3.1139200E-006
2	0	0	0	1	4.063317897351953E+002	-4.9038547E-001	-4.9062657E-001	-6.457751880306117E-003	2.000000000000000E+000	-2.1113852E-005	3.1683446E-006
2	0	0	0	1	4.063449897348619E+002	-4.9368423E-001	-4.9391523E-001	-6.527552202290579E-003	2.000000000000000E+000	-2.1200285E-005	3.2240575E-006
2	0	0	1	1	4.063583897345234E+002	-4.9703297E-001	-4.9726027E-001	-6.597977013775055E-003	2.000000000000000E+000	-2.1288990E-005	3.2809119E-006
2	0	0	0	1	4.063717897341849E+002	-5.0038165E-001	-5.0063586E-001	-6.668478405845224E-003	2.000000000000000E+000	-2.1378615E-005	3.3384795E-006
2	0	0	0	1	4.063849897338514E+002	-5.0368041E-001	-5.0392389E-001	-6.744993668689886E-003	2.000000000000000E+000	-2.1467893E-005	3.3989634E-006
2	0	0	1	1	4.063983897335129E+002	-5.0702918E-001	-5.0726658E-001	-6.812588846595538E-003	2.000000000000000E+000	-2.1559490E-005	3.4557986E-006
2	0	0	0	1	4.064117897331744E+002	-5.1037788E-001	-5.1063228E-001	-6.890856043011970E-003	2.000000000000000E+000	-2.1652060E-005	3.5186936E-006
2	0	0	0	1	4.064249897328409E+002	-5.1367664E-001	-5.1393205E-001	-6.959950326806102E-003	2.000000000000000E+000	-2.1744205E-005	3.5769415E-006
2	0	0	1	1	4.064383897325024E+002	-5.1702535E-001	-5.1726907E-001	-7.030624771869040E-003	2.000000000000000E+000	-2.1838716E-005	3.6367248E-006
2	0	0	0	1	4.064517897321639E+002	-5.2037412E-001	-5.2061987E-001	-7.113221570357852E-003	2.000000000000000E+000	-2.1934238E-005	3.7032844E-006
2	0	0	0	1	4.064649897318304E+002	-5.2367282E-001	-5.2392304E-001	-7.183233104984116E-003	2.000000000000000E+000	-2.2029337E-005	3.7634613E-006
2	0	0	1	1	4.064783897314919E+002	-5.2703822E-001	-5.2728331E-001	-7.257897563572938E-003	2.000000000000000E+000	-2.2126871E-005	3.8269682E-006
2	0	0	1	1	4.064915897311585E+002	-5.3033698E-001	-5.3058040E-001	-7.342047377945457E-003	2.000000000000000E+000	-2.2223961E-005	3.8955463E-006
2	0	0	0	1	4.065049897308199E+002	-5.3368568E-001	-5.3391594E-001	-7.409915537209599E-003	2.000000000000000E+000	-2.2323546E-005	3.9562719E-006
2	0	0	1	1	4.065183897304814E+002	-5.3703445E-001	-5.3728175E-001	-7.490074819118772E-003	2.000000000000000E+000	-2.2424127E-005	4.0242803E-006
2	0	0	1	1	4.065315897301480E+002	-5.4033315E-001	-5.4056603E-001	-7.572909627237487E-003	2.000000000000000E+000	-2.2524297E-005	4.0936575E-006
2	0	0	0	1	4.065449897298095E+002	-5.4368186E-001	-5.4390889E-001	-7.648381041993460E-003	2.000000000000000E+000	-2.2627064E-005	4.1600224E-006
2	0	0	1	1	4.065583897294709E+002	-5.4703063E-001	-5.4727483E-001	-7.729680739834679E-003	2.000000000000000E+000	-2.2730843E-005	4.2302595E-006
2	0	0	1	1	4.065715897291375E+002	-5.5032933E-001	-5.5057412E-001	-7.813250566444656E-003	2.000000000000000E+000	-2.2834183E-005	4.3017735E-006
2	0	0	0	1	4.065849897287990E+002	-5.5367810E-001	-5.5392909E-001	-7.901121029216383E-003	2.000000000000000E+000	-2.2940238E-005	4.3766609E-006
2	0	0	1	1	4.065983897284605E+002	-5.5702674E-001	-5.5729645E-001	-7.981320757729303E-003	2.000000000000000E+000	-2.3047412E-005	4.4479616E-006
2	0	0	1	1	4.066115897281270E+002	-5.6032550E-001	-5.6056744E-001	-8.072612839492215E-003	2.000000000000000E+000	-2.3154114E-005	4.5252441E-006
2	0	0	0	1	4.066249897277885E+002	-5.6367421E-001	-5.6393141E-001	-8.161066966931661E-003	2.000000000000000E+000	-2.3263632E-005	4.6022819E-006
2	0	0	1	1	4.066383897274500E+002	-5.6702298E-001	-5.6727636E-001	-8.244133562685517E-003	2.000000000000000E+000	-2.3374307E-005	4.6767022E-006
2	0	0	1	1	4.066515897271165E+002	-5.7033837E-001	-5.7059777E-001	-8.344853527119556E-003	2.000000000000000E+000	-2.3484572E-005	4.7615549E-006
2	0	0	0	1	4.066649897267780E+002	-5.7368702E-001	-5.7394952E-001	-8.434465935796540E-003	2.000000000000000E+000	-2.3597733E-005	4.8409574E-006
2	0	0	0	1	4.066781897264445E+002	-5.7698584E-001	-5.7723892E-001	-8.524548162515376E-003	2.000000000000000E+000	-2.3710396E-005	4.9207010E-006
2	0	0	1	1	4.066915897261060E+002	-5.8033454E-001	-5.8057213E-001	-8.619834545566377E-003	2.000000000000000E+000	-2.3826045E-005	5.0044355E-006
2	0	0	0	1	4.067049897257675E+002	-5.8368325E-001	-5.8391660E-001	-8.722314598667747E-003	2.000000000000000E+000	-2.3943008E-005	5.0931044E-006
2	0	0	0	1	4.067181897254341E+002	-5.8698201E-001	-5.8724636E-001	-8.822225272726636E-003	2.000000000000000E+000	-2.4059567E-005	5.1808197E-006
2	0	0	1	1	4.067315897250955E+002	-5.9033072E-001	-5.9057474E-001	-8.924484171196422E-003	2.000000000000000E+000	-2.4179217E-005	5.2705750E-006
2	0	0	0	1	4.067449897247570E+002	-5.9367949E-001	-5.9393924E-001	-9.025028002603604E-003	2.000000000000000E+000	-2.4300232E-005	5.3603185E-006
2	0	0	0	1	4.067581897244236E+002	-5.9697825E-001	-5.9722537E-001	-9.123593770062916E-003	2.000000000000000E+000	-2.4420769E-005	5.4488414E-006
2	0	0	1	1	4.067668897242038E+002	-5.9914780E-001	-5.9938169E-001	-9.195066686422643E-003	2.000000000000000E+000	-2.4500803E-005	5.5113546E-006
2	0	0	1	1	4.067695897241356E+002	-5.9982693E-001	-6.0008466E-001	-9.237014688551426E-003	2.000000000000000E+000	-2.4525838E-005	5.5429909E-006