EC-Lab ASCII FILE
Nb header lines : 53                          

Cyclic Voltammetry

Run on channel : 1 (SN 0696)
User : 
Electrode connection : standard
Ewe ctrl range : min = -10.00 V, max = 10.00 V
Ewe,I filtering : 50 kHz
Channel : Grounded
Acquisition started on : 05/17/2017 13:04:41
Saved on :
	File : 100 uM RS 10mM SHU_02_CV_C01.mpr
	Directory : \\userfs\st659\w2k\EC-Lab\Data\ITO Characterisation 17-5-17\
	Host : 144.32.136.43
Device : SP-300 (SN 0182)
Address : USB
EC-Lab for windows v10.44 (software)
Internet server v10.44 (firmware)
Command interpretor v10.44 (firmware)
Electrode material : 
Initial state : 
Electrolyte : 
Comments : 
Cable : standard
Electrode surface area : 0.001 cm²
Characteristic mass : 0.001 g
Equivalent Weight : 0.000 g/eq.
Density : 0.000 g/cm3
Ei (V)              0.000               
vs.                 Eoc                 
dE/dt               50.000              
dE/dt unit          mV/s                
E1 (V)              0.100               
vs.                 Ref                 
Step percent        50                  
N                   10                  
E range min (V)     -10.000             
E range max (V)     10.000              
I Range             Auto                
I Range min         Unset               
I Range max         Unset               
I Range init        Unset               
Bandwidth           8                   
E2 (V)              -0.600              
vs.                 Ref                 
nc cycles           2                   
Reverse Scan        1                   
Ef (V)              0.000               
vs.                 Eoc                 

mode	ox/red	error	control changes	counter inc.	time/s	control/V	Ewe/V	<I>/mA	cycle number	(Q-Qo)/C	P/W
2	1	0	0	1	2.695035931917664E+002	-6.0016018E-001	-6.0032886E-001	-7.889712229371071E-003	2.000000000000000E+000	-5.2166986E-005	4.7364219E-006
2	1	0	0	1	2.695403931908368E+002	-5.9832436E-001	-5.9852266E-001	-7.475646784249342E-003	2.000000000000000E+000	-5.2441595E-005	4.4743442E-006
2	1	0	1	1	2.696069931891543E+002	-5.9499341E-001	-5.9521073E-001	-7.189973908582933E-003	2.000000000000000E+000	-5.2925890E-005	4.2795496E-006
2	1	0	0	1	2.696735931874719E+002	-5.9166360E-001	-5.9188837E-001	-6.960682726625866E-003	2.000000000000000E+000	-5.3393331E-005	4.1199473E-006
2	1	0	1	1	2.697401931857894E+002	-5.8833480E-001	-5.8855295E-001	-6.757952339629808E-003	2.000000000000000E+000	-5.3846368E-005	3.9774127E-006
2	1	0	0	1	2.698067931841069E+002	-5.8500278E-001	-5.8522236E-001	-6.576518125663802E-003	2.000000000000000E+000	-5.4286575E-005	3.8487256E-006
2	1	0	0	1	2.698735931824194E+002	-5.8166397E-001	-5.8186150E-001	-6.398199774377042E-003	2.000000000000000E+000	-5.4716071E-005	3.7228660E-006
2	1	0	1	1	2.699401931807370E+002	-5.7833427E-001	-5.7854867E-001	-6.241450201726229E-003	2.000000000000000E+000	-5.5133256E-005	3.6109827E-006
2	1	0	0	1	2.700067931790545E+002	-5.7500327E-001	-5.7521683E-001	-6.092243882924342E-003	2.000000000000000E+000	-5.5540284E-005	3.5043613E-006
2	1	0	1	1	2.700733931773721E+002	-5.7167453E-001	-5.7189250E-001	-5.952136302881730E-003	2.000000000000000E+000	-5.5937697E-005	3.4039822E-006
2	1	0	1	1	2.701400931756871E+002	-5.6833798E-001	-5.6856775E-001	-5.815055477958658E-003	2.000000000000000E+000	-5.6326495E-005	3.3062531E-006
2	1	0	0	1	2.702067931740021E+002	-5.6500369E-001	-5.6523454E-001	-5.689882752562936E-003	2.000000000000000E+000	-5.6706554E-005	3.2161183E-006
2	1	0	1	1	2.702733931723196E+002	-5.6167501E-001	-5.6187910E-001	-5.565551358626658E-003	2.000000000000000E+000	-5.7077665E-005	3.1271670E-006
2	1	0	0	1	2.703399931706372E+002	-5.5834293E-001	-5.5855846E-001	-5.450515413137805E-003	2.000000000000000E+000	-5.7440902E-005	3.0444314E-006
2	1	0	1	1	2.704065931689547E+002	-5.5501425E-001	-5.5523205E-001	-5.339956098198845E-003	2.000000000000000E+000	-5.7796617E-005	2.9649148E-006
2	1	0	1	1	2.704732931672697E+002	-5.5167878E-001	-5.5185610E-001	-5.232296260377065E-003	2.000000000000000E+000	-5.8145579E-005	2.8874747E-006
2	1	0	0	1	2.705399931655847E+002	-5.4834342E-001	-5.4853970E-001	-5.128420376293547E-003	2.000000000000000E+000	-5.8487465E-005	2.8131421E-006
2	1	0	1	1	2.706065931639023E+002	-5.4501468E-001	-5.4520673E-001	-5.030858442915224E-003	2.000000000000000E+000	-5.8822188E-005	2.7428578E-006
2	1	0	0	1	2.706731931622198E+002	-5.4168260E-001	-5.4187024E-001	-4.933341113613487E-003	2.000000000000000E+000	-5.9150381E-005	2.6732307E-006
2	1	0	1	1	2.707397931605374E+002	-5.3835386E-001	-5.3854513E-001	-4.842426864544946E-003	2.000000000000000E+000	-5.9472317E-005	2.6078653E-006
2	1	0	1	1	2.708064931588524E+002	-5.3501958E-001	-5.3521115E-001	-4.752479309084429E-003	2.000000000000000E+000	-5.9788737E-005	2.5435800E-006
2	1	0	0	1	2.708731931571674E+002	-5.3168315E-001	-5.3188580E-001	-4.664618530602854E-003	2.000000000000000E+000	-6.0099268E-005	2.4810445E-006
2	1	0	1	1	2.709397931554849E+002	-5.2835441E-001	-5.2856475E-001	-4.580303206541771E-003	2.000000000000000E+000	-6.0403629E-005	2.4209869E-006
2	1	0	0	1	2.710063931538025E+002	-5.2502340E-001	-5.2522415E-001	-4.499408933055071E-003	2.000000000000000E+000	-6.0702478E-005	2.3631983E-006
2	1	0	1	1	2.710729931521200E+002	-5.2169359E-001	-5.2188659E-001	-4.420789552938509E-003	2.000000000000000E+000	-6.0995964E-005	2.3071507E-006
2	1	0	1	1	2.711397931504325E+002	-5.1835483E-001	-5.1855922E-001	-4.341245358659901E-003	2.000000000000000E+000	-6.1285071E-005	2.2511929E-006
2	1	0	0	1	2.712063931487501E+002	-5.1502281E-001	-5.1523447E-001	-4.266482185178166E-003	2.000000000000000E+000	-6.1568178E-005	2.1982387E-006
2	1	0	1	1	2.712729931470676E+002	-5.1169401E-001	-5.1190990E-001	-4.192148133121798E-003	2.000000000000000E+000	-6.1846367E-005	2.1460021E-006
2	1	0	0	1	2.713395931453852E+002	-5.0836426E-001	-5.0856924E-001	-4.120811793295586E-003	2.000000000000000E+000	-6.2119681E-005	2.0957182E-006
2	1	0	1	1	2.714061931437027E+002	-5.0503325E-001	-5.0523627E-001	-4.050492746828718E-003	2.000000000000000E+000	-6.2388259E-005	2.0464558E-006
2	1	0	1	1	2.714729931420152E+002	-5.0169456E-001	-5.0189787E-001	-3.980486082978789E-003	2.000000000000000E+000	-6.2653016E-005	1.9977974E-006
2	1	0	0	1	2.715395931403327E+002	-4.9836245E-001	-4.9854925E-001	-3.913355962677546E-003	2.000000000000000E+000	-6.2912390E-005	1.9510007E-006
2	1	0	1	1	2.716061931386503E+002	-4.9503371E-001	-4.9522832E-001	-3.848672485782280E-003	2.000000000000000E+000	-6.3167339E-005	1.9059717E-006
2	1	0	0	1	2.716727931369678E+002	-4.9170497E-001	-4.9189082E-001	-3.783162507161163E-003	2.000000000000000E+000	-6.3417952E-005	1.8609029E-006
2	1	0	1	1	2.717393931352854E+002	-4.8837295E-001	-4.8858348E-001	-3.719716806894318E-003	2.000000000000000E+000	-6.3664294E-005	1.8173922E-006
2	1	0	1	1	2.718061931335978E+002	-4.8503423E-001	-4.8522756E-001	-3.657181537024696E-003	2.000000000000000E+000	-6.3907210E-005	1.7745652E-006
2	1	0	0	1	2.718727931319154E+002	-4.8170325E-001	-4.8190144E-001	-3.596101080508500E-003	2.000000000000000E+000	-6.4145250E-005	1.7329663E-006
2	1	0	1	1	2.719393931302329E+002	-4.7837344E-001	-4.7857958E-001	-3.536151527504316E-003	2.000000000000000E+000	-6.4379237E-005	1.6923299E-006
2	1	0	0	1	2.720059931285505E+002	-4.7504470E-001	-4.7524473E-001	-3.476098450362668E-003	2.000000000000000E+000	-6.4609216E-005	1.6519974E-006
2	1	0	0	1	2.720726931268655E+002	-4.7170815E-001	-4.7190970E-001	-3.416755821664189E-003	2.000000000000000E+000	-6.4835614E-005	1.6124002E-006
2	1	0	1	1	2.721393931251805E+002	-4.6837386E-001	-4.6857074E-001	-3.358382075034718E-003	2.000000000000000E+000	-6.5058099E-005	1.5736396E-006
2	1	0	0	1	2.722059931234980E+002	-4.6504402E-001	-4.6521899E-001	-3.301890475807923E-003	2.000000000000000E+000	-6.5276407E-005	1.5361021E-006
2	1	0	1	1	2.722725931218156E+002	-4.6171311E-001	-4.6188852E-001	-3.245519113120487E-003	2.000000000000000E+000	-6.5490916E-005	1.4990680E-006
2	1	0	0	1	2.723391931201331E+002	-4.5838439E-001	-4.5856255E-001	-3.189993152940322E-003	2.000000000000000E+000	-6.5701752E-005	1.4628114E-006
2	1	0	0	1	2.724058931184481E+002	-4.5504898E-001	-4.5519957E-001	-3.134223213683517E-003	2.000000000000000E+000	-6.5909189E-005	1.4266971E-006
2	1	0	1	1	2.724725931167632E+002	-4.5171356E-001	-4.5188224E-001	-3.081384767829400E-003	2.000000000000000E+000	-6.6113018E-005	1.3924231E-006
2	1	0	0	1	2.725391931150807E+002	-4.4838485E-001	-4.4855666E-001	-3.027554465102597E-003	2.000000000000000E+000	-6.6312998E-005	1.3580297E-006
2	1	0	1	1	2.726057931133982E+002	-4.4505280E-001	-4.4522592E-001	-2.976041141418917E-003	2.000000000000000E+000	-6.6509492E-005	1.3250107E-006
2	1	0	0	1	2.726723931117158E+002	-4.4172409E-001	-4.4192287E-001	-2.923130099057383E-003	2.000000000000000E+000	-6.6702472E-005	1.2917981E-006
2	1	0	0	1	2.727390931100308E+002	-4.3838865E-001	-4.3856451E-001	-2.870818045598050E-003	2.000000000000000E+000	-6.6892258E-005	1.2590389E-006
2	1	0	1	1	2.728057931083458E+002	-4.3505326E-001	-4.3523592E-001	-2.821014267563332E-003	2.000000000000000E+000	-6.7078632E-005	1.2278067E-006
2	1	0	0	1	2.728723931066634E+002	-4.3172452E-001	-4.3190050E-001	-2.771479731344416E-003	2.000000000000000E+000	-6.7261382E-005	1.1970035E-006
2	1	0	1	1	2.729389931049809E+002	-4.2839357E-001	-4.2857981E-001	-2.719949521420163E-003	2.000000000000000E+000	-6.7440786E-005	1.1657154E-006
2	1	0	0	1	2.730055931032985E+002	-4.2506373E-001	-4.2525747E-001	-2.671835125272554E-003	2.000000000000000E+000	-6.7616922E-005	1.1362179E-006
2	1	0	0	1	2.730722931016135E+002	-4.2172942E-001	-4.2192724E-001	-2.623671014998968E-003	2.000000000000000E+000	-6.7790090E-005	1.1069983E-006
2	1	0	1	1	2.731389930999285E+002	-4.1839296E-001	-4.1860452E-001	-2.574499160152018E-003	2.000000000000000E+000	-6.7959976E-005	1.0776970E-006
2	1	0	0	1	2.732055930982460E+002	-4.1506422E-001	-4.1526049E-001	-2.527680089993364E-003	2.000000000000000E+000	-6.8126414E-005	1.0496457E-006
2	1	0	1	1	2.732721930965636E+002	-4.1173437E-001	-4.1192439E-001	-2.479453733068702E-003	2.000000000000000E+000	-6.8289679E-005	1.0213474E-006
2	1	0	0	1	2.733387930948811E+002	-4.0840343E-001	-4.0861630E-001	-2.432492334331729E-003	2.000000000000000E+000	-6.8449808E-005	9.9395606E-007
2	1	0	0	1	2.734055930931936E+002	-4.0506470E-001	-4.0526155E-001	-2.387168862419926E-003	2.000000000000000E+000	-6.8607405E-005	9.6742770E-007
2	1	0	1	1	2.734721930915111E+002	-4.0173265E-001	-4.0195119E-001	-2.340196553377520E-003	2.000000000000000E+000	-6.8761387E-005	9.4064478E-007
2	1	0	0	1	2.735387930898287E+002	-3.9840391E-001	-3.9862967E-001	-2.295471813866523E-003	2.000000000000000E+000	-6.8912304E-005	9.1504319E-007
2	1	0	1	1	2.736053930881462E+002	-3.9507404E-001	-3.9529306E-001	-2.251039706003958E-003	2.000000000000000E+000	-6.9060254E-005	8.8982034E-007
2	1	0	0	1	2.736719930864638E+002	-3.9174309E-001	-3.9196682E-001	-2.206904802485094E-003	2.000000000000000E+000	-6.9205249E-005	8.6503348E-007
2	1	0	0	1	2.737387930847763E+002	-3.8840440E-001	-3.8860935E-001	-2.163140856145749E-003	2.000000000000000E+000	-6.9347770E-005	8.4061674E-007
2	1	0	1	1	2.738053930830938E+002	-3.8507339E-001	-3.8529807E-001	-2.118971545349485E-003	2.000000000000000E+000	-6.9486989E-005	8.1643566E-007
2	1	0	0	1	2.738719930814113E+002	-3.8174358E-001	-3.8196826E-001	-2.076093832508889E-003	2.000000000000000E+000	-6.9623304E-005	7.9300196E-007
2	1	0	1	1	2.739385930797289E+002	-3.7841487E-001	-3.7859920E-001	-2.035622392351145E-003	2.000000000000000E+000	-6.9756818E-005	7.7068501E-007
2	1	0	0	1	2.740051930780464E+002	-3.7508279E-001	-3.7527087E-001	-1.994042931657374E-003	2.000000000000000E+000	-6.9887559E-005	7.4830621E-007
2	1	0	0	1	2.740719930763589E+002	-3.7174407E-001	-3.7193879E-001	-1.952476709536310E-003	2.000000000000000E+000	-7.0015943E-005	7.2620185E-007
2	1	0	1	1	2.741385930746765E+002	-3.6841422E-001	-3.6859846E-001	-1.912347453611397E-003	2.000000000000000E+000	-7.0141214E-005	7.0488835E-007
2	1	0	0	1	2.742051930729940E+002	-3.6508328E-001	-3.6527011E-001	-1.872561493769166E-003	2.000000000000000E+000	-7.0263864E-005	6.8399072E-007
2	1	0	1	1	2.742717930713115E+002	-3.6175454E-001	-3.6196044E-001	-1.834005373482059E-003	2.000000000000000E+000	-7.0383881E-005	6.6383740E-007
2	1	0	1	1	2.743384930696266E+002	-3.5841802E-001	-3.5862470E-001	-1.794308168840431E-003	2.000000000000000E+000	-7.0501446E-005	6.4348325E-007
2	1	0	0	1	2.744051930679416E+002	-3.5508376E-001	-3.5529193E-001	-1.755070645205016E-003	2.000000000000000E+000	-7.0616414E-005	6.2356241E-007
2	1	0	1	1	2.744717930662591E+002	-3.5175392E-001	-3.5196987E-001	-1.717123732618713E-003	2.000000000000000E+000	-7.0728638E-005	6.0437583E-007
2	1	0	0	1	2.745383930645767E+002	-3.4842297E-001	-3.4863454E-001	-1.678801472968219E-003	2.000000000000000E+000	-7.0838345E-005	5.8528821E-007
2	1	0	1	1	2.746049930628942E+002	-3.4509426E-001	-3.4529433E-001	-1.642512881834847E-003	2.000000000000000E+000	-7.0945585E-005	5.6715038E-007
2	1	0	1	1	2.746716930612092E+002	-3.4175885E-001	-3.4197107E-001	-1.606369739893253E-003	2.000000000000000E+000	-7.1050570E-005	5.4933196E-007
2	1	0	0	1	2.747383930595242E+002	-3.3842346E-001	-3.3860666E-001	-1.569295029762958E-003	2.000000000000000E+000	-7.1153081E-005	5.3137376E-007
2	1	0	1	1	2.748049930578418E+002	-3.3509472E-001	-3.3527863E-001	-1.534107591520955E-003	2.000000000000000E+000	-7.1253053E-005	5.1435347E-007
2	1	0	0	1	2.748715930561593E+002	-3.3176264E-001	-3.3194163E-001	-1.499678715442267E-003	2.000000000000000E+000	-7.1350703E-005	4.9780579E-007
2	1	0	1	1	2.749381930544769E+002	-3.2843390E-001	-3.2861039E-001	-1.463904874322900E-003	2.000000000000000E+000	-7.1445997E-005	4.8105437E-007
2	1	0	1	1	2.750048930527919E+002	-3.2509962E-001	-3.2525444E-001	-1.430293933306338E-003	2.000000000000000E+000	-7.1539187E-005	4.6520944E-007
2	1	0	0	1	2.750715930511069E+002	-3.2176310E-001	-3.2193407E-001	-1.397338727397203E-003	2.000000000000000E+000	-7.1630122E-005	4.4985094E-007
2	1	0	1	1	2.751381930494244E+002	-3.1843439E-001	-3.1861368E-001	-1.364167439149595E-003	2.000000000000000E+000	-7.1718729E-005	4.3464240E-007
2	1	0	0	1	2.752047930477420E+002	-3.1510347E-001	-3.1527385E-001	-1.332275939869992E-003	2.000000000000000E+000	-7.1805152E-005	4.2003177E-007
2	1	0	1	1	2.752713930460595E+002	-3.1177363E-001	-3.1196517E-001	-1.300379205309180E-003	2.000000000000000E+000	-7.1889423E-005	4.0567301E-007
2	1	0	1	1	2.753381930443720E+002	-3.0843490E-001	-3.0861628E-001	-1.268467062580699E-003	2.000000000000000E+000	-7.1971808E-005	3.9146960E-007
2	1	0	0	1	2.754047930426896E+002	-3.0510280E-001	-3.0528364E-001	-1.236828901806063E-003	2.000000000000000E+000	-7.2051844E-005	3.7758363E-007
2	1	0	1	1	2.754713930410071E+002	-3.0177408E-001	-3.0195057E-001	-1.206208532442771E-003	2.000000000000000E+000	-7.2129827E-005	3.6421537E-007
2	1	0	0	1	2.755379930393246E+002	-2.9844421E-001	-2.9861614E-001	-1.175335857143354E-003	2.000000000000000E+000	-7.2205774E-005	3.5097426E-007
2	1	0	1	1	2.756045930376422E+002	-2.9511330E-001	-2.9527530E-001	-1.145619575989194E-003	2.000000000000000E+000	-7.2279661E-005	3.3827317E-007
2	1	0	1	1	2.756713930359547E+002	-2.9177454E-001	-2.9192981E-001	-1.116372050941394E-003	2.000000000000000E+000	-7.2351817E-005	3.2590228E-007
2	1	0	0	1	2.757379930342722E+002	-2.8844249E-001	-2.8858754E-001	-1.087049893603982E-003	2.000000000000000E+000	-7.2421790E-005	3.1370905E-007
2	1	0	1	1	2.758045930325898E+002	-2.8511375E-001	-2.8524643E-001	-1.057097488180912E-003	2.000000000000000E+000	-7.2489842E-005	3.0153328E-007
2	1	0	0	1	2.758711930309073E+002	-2.8178504E-001	-2.8191021E-001	-1.029550570860734E-003	2.000000000000000E+000	-7.2555973E-005	2.9024082E-007
2	1	0	1	1	2.759377930292248E+002	-2.7845296E-001	-2.7858675E-001	-1.001625449566142E-003	2.000000000000000E+000	-7.2620271E-005	2.7903957E-007
2	1	0	1	1	2.760045930275373E+002	-2.7511424E-001	-2.7525100E-001	-9.747823987093290E-004	2.000000000000000E+000	-7.2682924E-005	2.6830983E-007
2	1	0	0	1	2.760711930258549E+002	-2.7178326E-001	-2.7194303E-001	-9.467705449906034E-004	2.000000000000000E+000	-7.2743569E-005	2.5746766E-007
2	1	0	1	1	2.761377930241724E+002	-2.6845342E-001	-2.6861450E-001	-9.194316007458767E-004	2.000000000000000E+000	-7.2802366E-005	2.4697266E-007
2	1	0	0	1	2.762043930224900E+002	-2.6512468E-001	-2.6528546E-001	-8.929186375930907E-004	2.000000000000000E+000	-7.2859380E-005	2.3687834E-007
2	1	0	0	1	2.762710930208050E+002	-2.6178819E-001	-2.6193720E-001	-8.669589780926331E-004	2.000000000000000E+000	-7.2914707E-005	2.2708880E-007
2	1	0	1	1	2.763377930191200E+002	-2.5845394E-001	-2.5860855E-001	-8.408711231247517E-004	2.000000000000000E+000	-7.2968323E-005	2.1745646E-007
2	1	0	0	1	2.764043930174375E+002	-2.5512409E-001	-2.5529861E-001	-8.156653615522215E-004	2.000000000000000E+000	-7.3020165E-005	2.0823823E-007
2	1	0	1	1	2.764709930157551E+002	-2.5179315E-001	-2.5196481E-001	-7.897461507104051E-004	2.000000000000000E+000	-7.3070267E-005	1.9898823E-007
2	1	0	0	1	2.765375930140726E+002	-2.4846441E-001	-2.4865016E-001	-7.644506588512477E-004	2.000000000000000E+000	-7.3118645E-005	1.9008078E-007
2	1	0	0	1	2.766042930123876E+002	-2.4512787E-001	-2.4529493E-001	-7.387624351056855E-004	2.000000000000000E+000	-7.3165429E-005	1.8121467E-007
2	1	0	1	1	2.766709930107027E+002	-2.4179359E-001	-2.4196550E-001	-7.135783132527981E-004	2.000000000000000E+000	-7.3210496E-005	1.7266133E-007
2	1	0	0	1	2.767375930090202E+002	-2.3846488E-001	-2.3864774E-001	-6.893880533806376E-004	2.000000000000000E+000	-7.3253868E-005	1.6452090E-007
2	1	0	1	1	2.768041930073377E+002	-2.3513280E-001	-2.3531285E-001	-6.638874827225752E-004	2.000000000000000E+000	-7.3295596E-005	1.5622126E-007
2	1	0	0	1	2.768707930056553E+002	-2.3180409E-001	-2.3199426E-001	-6.402204171667701E-004	2.000000000000000E+000	-7.3335708E-005	1.4852746E-007
2	1	0	0	1	2.769374930039703E+002	-2.2846867E-001	-2.2866982E-001	-6.165734962265507E-004	2.000000000000000E+000	-7.3374256E-005	1.4099176E-007
2	1	0	1	1	2.770041930022853E+002	-2.2513330E-001	-2.2532736E-001	-5.912029303973238E-004	2.000000000000000E+000	-7.3411167E-005	1.3321420E-007
2	1	0	0	1	2.770707930006029E+002	-2.2180456E-001	-2.2199133E-001	-5.668243649687189E-004	2.000000000000000E+000	-7.3446376E-005	1.2583010E-007
2	1	0	1	1	2.771373929989204E+002	-2.1847360E-001	-2.1865398E-001	-5.418703213657177E-004	2.000000000000000E+000	-7.3479961E-005	1.1848210E-007
2	1	0	0	1	2.772039929972379E+002	-2.1514378E-001	-2.1533720E-001	-5.178851017761370E-004	2.000000000000000E+000	-7.3511939E-005	1.1151993E-007
2	1	0	0	1	2.772906929950477E+002	-2.1081074E-001	-2.1097301E-001	-4.807436358573690E-004	2.000000000000000E+000	-7.3552088E-005	1.0142393E-007
2	1	0	1	1	2.773773929928575E+002	-2.0647374E-001	-2.0664349E-001	-4.418225168407799E-004	2.000000000000000E+000	-7.3590119E-005	9.1299746E-008
2	1	0	0	1	2.774439929911750E+002	-2.0314389E-001	-2.0331438E-001	-4.176194993648916E-004	2.000000000000000E+000	-7.3616386E-005	8.4908052E-008
2	1	0	1	1	2.775105929894926E+002	-1.9981293E-001	-1.9996437E-001	-3.921138340527734E-004	2.000000000000000E+000	-7.3641007E-005	7.8408796E-008
2	1	0	0	1	2.775771929878101E+002	-1.9648421E-001	-1.9664574E-001	-3.685319035227372E-004	2.000000000000000E+000	-7.3663970E-005	7.2470229E-008
2	1	0	0	1	2.776438929861251E+002	-1.9314882E-001	-1.9331984E-001	-3.432663827828762E-004	2.000000000000000E+000	-7.3685347E-005	6.6360201E-008
2	1	0	1	1	2.777105929844402E+002	-1.8981344E-001	-1.9000129E-001	-3.194318429434245E-004	2.000000000000000E+000	-7.3705058E-005	6.0692464E-008
2	1	0	0	1	2.777771929827577E+002	-1.8648469E-001	-1.8666464E-001	-2.939889442235616E-004	2.000000000000000E+000	-7.3723102E-005	5.4877340E-008
2	1	0	1	1	2.778437929810752E+002	-1.8315263E-001	-1.8333274E-001	-2.677448984145167E-004	2.000000000000000E+000	-7.3739429E-005	4.9086406E-008
2	1	0	0	1	2.779103929793928E+002	-1.7982392E-001	-1.7998180E-001	-2.420259812976218E-004	2.000000000000000E+000	-7.3754032E-005	4.3560270E-008
2	1	0	0	1	2.779770929777078E+002	-1.7648961E-001	-1.7666072E-001	-2.166505001578709E-004	2.000000000000000E+000	-7.3766947E-005	3.8273633E-008
2	1	0	1	1	2.780437929760228E+002	-1.7315312E-001	-1.7333092E-001	-1.908399725042708E-004	2.000000000000000E+000	-7.3778167E-005	3.3078468E-008
2	1	0	0	1	2.781103929743404E+002	-1.6982439E-001	-1.7000194E-001	-1.638361644359424E-004	2.000000000000000E+000	-7.3787618E-005	2.7852465E-008
2	1	0	1	1	2.781769929726579E+002	-1.6649343E-001	-1.6664521E-001	-1.380613593458869E-004	2.000000000000000E+000	-7.3795287E-005	2.3007265E-008
2	1	0	0	1	2.782435929709754E+002	-1.6316359E-001	-1.6331343E-001	-1.133218555059908E-004	2.000000000000000E+000	-7.3801275E-005	1.8506981E-008
2	1	0	0	1	2.783103929692879E+002	-1.5982486E-001	-1.5997666E-001	-8.710591421726794E-005	2.000000000000000E+000	-7.3805611E-005	1.3934914E-008
2	1	0	1	1	2.783769929676055E+002	-1.5649278E-001	-1.5661557E-001	-6.104609803916103E-005	2.000000000000000E+000	-7.3808180E-005	9.5607691E-009
2	1	0	0	1	2.784435929659230E+002	-1.5316407E-001	-1.5328789E-001	-3.744513917539169E-005	2.000000000000000E+000	-7.3809075E-005	5.7398863E-009
2	1	0	1	1	2.785101929642406E+002	-1.4983423E-001	-1.4998379E-001	-1.258176391150473E-005	2.000000000000000E+000	-7.3808325E-005	1.8870607E-009
2	1	0	0	1	2.785767929625581E+002	-1.4650327E-001	-1.4665046E-001	1.149465686628653E-005	2.000000000000000E+000	-7.3805961E-005	1.6856968E-009
2	1	0	0	1	2.786435929608706E+002	-1.4316455E-001	-1.4330494E-001	3.710321756988867E-005	2.000000000000000E+000	-7.3801944E-005	5.3170743E-009
2	1	0	1	1	2.787101929591881E+002	-1.3983248E-001	-1.3997109E-001	6.172755677037419E-005	2.000000000000000E+000	-7.3796284E-005	8.6400735E-009
2	1	0	0	1	2.787767929575057E+002	-1.3650376E-001	-1.3664164E-001	8.550818144715054E-005	2.000000000000000E+000	-7.3788979E-005	1.1683978E-008
2	1	0	1	1	2.788433929558232E+002	-1.3317502E-001	-1.3330720E-001	1.095907684592209E-004	2.000000000000000E+000	-7.3780080E-005	1.4609239E-008
2	1	0	0	1	2.789099929541408E+002	-1.2984295E-001	-1.2999424E-001	1.342831940492465E-004	2.000000000000000E+000	-7.3769581E-005	1.7456042E-008
2	1	0	0	1	2.789767929524533E+002	-1.2650423E-001	-1.2664983E-001	1.578752860781157E-004	2.000000000000000E+000	-7.3757437E-005	1.9994877E-008
2	1	0	1	1	2.790433929507708E+002	-1.2317326E-001	-1.2330093E-001	1.813143655398372E-004	2.000000000000000E+000	-7.3743729E-005	2.2356231E-008
2	1	0	0	1	2.791099929490883E+002	-1.1984342E-001	-1.1998034E-001	2.046588933638179E-004	2.000000000000000E+000	-7.3728501E-005	2.4555042E-008
2	1	0	1	1	2.791765929474059E+002	-1.1651471E-001	-1.1663786E-001	2.275020998704969E-004	2.000000000000000E+000	-7.3711723E-005	2.6535359E-008
2	1	0	1	1	2.792432929457209E+002	-1.1317819E-001	-1.1329327E-001	2.503915160544033E-004	2.000000000000000E+000	-7.3693380E-005	2.8367673E-008
2	1	0	0	1	2.793099929440359E+002	-1.0984391E-001	-1.0995336E-001	2.716557763074228E-004	2.000000000000000E+000	-7.3673560E-005	2.9869465E-008
2	1	0	1	1	2.793765929423535E+002	-1.0651406E-001	-1.0662248E-001	2.930592056617914E-004	2.000000000000000E+000	-7.3652343E-005	3.1246699E-008
2	1	0	0	1	2.794431929406710E+002	-1.0318311E-001	-1.0331209E-001	3.146859925702260E-004	2.000000000000000E+000	-7.3629686E-005	3.2510869E-008
2	1	0	1	1	2.795097929389885E+002	-9.9854380E-002	-9.9995524E-002	3.351111359341877E-004	2.000000000000000E+000	-7.3605654E-005	3.3509615E-008
2	1	0	1	1	2.795764929373036E+002	-9.6517861E-002	-9.6644104E-002	3.553403802513400E-004	2.000000000000000E+000	-7.3580224E-005	3.4341554E-008
2	1	0	0	1	2.796431929356186E+002	-9.3183592E-002	-9.3290091E-002	3.765121571401701E-004	2.000000000000000E+000	-7.3553412E-005	3.5124852E-008
2	1	0	1	1	2.797097929339361E+002	-8.9854866E-002	-8.9960881E-002	3.947340483849470E-004	2.000000000000000E+000	-7.3525334E-005	3.5510624E-008
2	1	0	0	1	2.797763929322537E+002	-8.6522795E-002	-8.6648010E-002	4.122436721764036E-004	2.000000000000000E+000	-7.3496063E-005	3.5720095E-008
2	1	0	1	1	2.798429929305712E+002	-8.3194062E-002	-8.3311386E-002	4.281972478241318E-004	2.000000000000000E+000	-7.3465679E-005	3.5673708E-008
2	1	0	1	1	2.799096929288862E+002	-7.9858668E-002	-7.9983190E-002	4.433407033156119E-004	2.000000000000000E+000	-7.3434217E-005	3.5459802E-008
2	1	0	0	1	2.799763929272012E+002	-7.6523274E-002	-7.6661453E-002	4.574826052659428E-004	2.000000000000000E+000	-7.3401745E-005	3.5071281E-008
2	1	0	1	1	2.800429929255188E+002	-7.3194541E-002	-7.3329687E-002	4.717044888763507E-004	2.000000000000000E+000	-7.3368377E-005	3.4589942E-008
2	1	0	0	1	2.801095929238363E+002	-6.9863588E-002	-6.9993824E-002	4.837695675469975E-004	2.000000000000000E+000	-7.3334151E-005	3.3860882E-008
2	1	0	1	1	2.801761929221539E+002	-6.6533744E-002	-6.6671357E-002	4.938857295828901E-004	2.000000000000000E+000	-7.3299183E-005	3.2928032E-008
2	1	0	1	1	2.802428929204689E+002	-6.3199461E-002	-6.3336521E-002	5.035775955998540E-004	2.000000000000000E+000	-7.3263516E-005	3.1894853E-008
2	1	0	0	1	2.803095929187839E+002	-5.9862956E-002	-6.0003683E-002	5.125058661373614E-004	2.000000000000000E+000	-7.3227216E-005	3.0752240E-008
2	1	0	1	1	2.803761929171014E+002	-5.6534231E-002	-5.6693658E-002	5.196973237056905E-004	2.000000000000000E+000	-7.3190444E-005	2.9463543E-008
2	1	0	0	1	2.804427929154190E+002	-5.3203277E-002	-5.3346924E-002	5.263102929692349E-004	2.000000000000000E+000	-7.3153205E-005	2.8077036E-008
2	1	0	1	1	2.805093929137365E+002	-4.9873434E-002	-5.0014492E-002	5.316731406032881E-004	2.000000000000000E+000	-7.3115560E-005	2.6591362E-008
2	1	0	1	1	2.805761929120490E+002	-4.6534710E-002	-4.6665322E-002	5.359032282216281E-004	2.000000000000000E+000	-7.3077514E-005	2.5008097E-008
2	1	0	0	1	2.806427929103666E+002	-4.3202650E-002	-4.3338139E-002	5.387077627680690E-004	2.000000000000000E+000	-7.3039351E-005	2.3346592E-008
2	1	0	1	1	2.807093929086841E+002	-3.9873913E-002	-4.0005293E-002	5.413334820044968E-004	2.000000000000000E+000	-7.3000956E-005	2.1656204E-008
2	1	0	0	1	2.807759929070016E+002	-3.6544073E-002	-3.6669210E-002	5.421160976063592E-004	2.000000000000000E+000	-7.2962430E-005	1.9878970E-008
2	1	0	1	1	2.808425929053192E+002	-3.3213120E-002	-3.3330210E-002	5.430131821339262E-004	2.000000000000000E+000	-7.2923889E-005	1.8098744E-008
2	1	0	1	1	2.809093929036317E+002	-2.9874392E-002	-2.9990714E-002	5.419288099119610E-004	2.000000000000000E+000	-7.2885232E-005	1.6252832E-008
2	1	0	0	1	2.809759929019492E+002	-2.6543440E-002	-2.6650049E-002	5.407753521604088E-004	2.000000000000000E+000	-7.2846749E-005	1.4411690E-008
2	1	0	1	1	2.810425929002668E+002	-2.3213601E-002	-2.3331307E-002	5.390637405256991E-004	2.000000000000000E+000	-7.2808361E-005	1.2577061E-008
2	1	0	0	1	2.811091928985843E+002	-1.9884869E-002	-2.0022649E-002	5.366224927386117E-004	2.000000000000000E+000	-7.2770141E-005	1.0744604E-008
2	1	0	1	1	2.811757928969018E+002	-1.6552804E-002	-1.6691398E-002	5.341720910137567E-004	2.000000000000000E+000	-7.2732080E-005	8.9160785E-009
2	1	0	1	1	2.812425928952143E+002	-1.3214078E-002	-1.3352499E-002	5.300925926122347E-004	2.000000000000000E+000	-7.2694100E-005	7.0780608E-009
2	1	0	0	1	2.813091928935319E+002	-9.8831244E-003	-1.0014573E-002	5.283944662570639E-004	2.000000000000000E+000	-7.2656418E-005	5.2916449E-009
2	1	0	1	1	2.813757928918494E+002	-6.5532839E-003	-6.6834874E-003	5.242318883643595E-004	2.000000000000000E+000	-7.2618954E-005	3.5036973E-009
2	1	0	0	1	2.814423928901670E+002	-3.2245524E-003	-3.3736734E-003	5.204445926495931E-004	2.000000000000000E+000	-7.2581744E-005	1.7558101E-009
2	1	0	0	1	2.815090928884820E+002	1.2445175E-004	-2.9516365E-005	5.167747573627916E-004	2.000000000000000E+000	-7.2544739E-005	1.5253313E-011
2	1	0	1	1	2.815757928867970E+002	3.4462367E-003	3.3449626E-003	5.132989689180315E-004	2.000000000000000E+000	-7.2507937E-005	1.7169659E-009
2	1	0	0	1	2.816423928851145E+002	6.7760763E-003	6.6607720E-003	5.087574198433869E-004	2.000000000000000E+000	-7.2471470E-005	3.3887171E-009
2	1	0	1	1	2.817089928834321E+002	1.0107028E-002	9.9929934E-003	5.043479478334112E-004	2.000000000000000E+000	-7.2435287E-005	5.0399458E-009
2	1	0	0	1	2.817755928817496E+002	1.3435757E-002	1.3340229E-002	5.000194075695469E-004	2.000000000000000E+000	-7.2399380E-005	6.6703736E-009
2	1	0	0	1	2.818422928800646E+002	1.6771149E-002	1.6679473E-002	4.969695654399508E-004	2.000000000000000E+000	-7.2363677E-005	8.2891907E-009
2	1	0	1	1	2.819089928783796E+002	2.0106543E-002	2.0020453E-002	4.930338994103001E-004	2.000000000000000E+000	-7.2328228E-005	9.8707620E-009
2	1	0	0	1	2.819755928766972E+002	2.3435274E-002	2.3343971E-002	4.895160539532062E-004	2.000000000000000E+000	-7.2293078E-005	1.1427248E-008
2	1	0	1	1	2.820421928750147E+002	2.6767336E-002	2.6661800E-002	4.847650090550710E-004	2.000000000000000E+000	-7.2258226E-005	1.2924708E-008
2	1	0	0	1	2.821087928733323E+002	3.0096067E-002	2.9996298E-002	4.816780821583508E-004	2.000000000000000E+000	-7.2223593E-005	1.4448560E-008
2	1	0	0	1	2.821754928716473E+002	3.3430342E-002	3.3337828E-002	4.776690018973037E-004	2.000000000000000E+000	-7.2189170E-005	1.5924448E-008
2	1	0	1	1	2.822421928699623E+002	3.6766849E-002	3.6680631E-002	4.743302510596273E-004	2.000000000000000E+000	-7.2154966E-005	1.7398733E-008
2	1	0	0	1	2.823087928682799E+002	4.0095583E-002	4.0004194E-002	4.709151503190902E-004	2.000000000000000E+000	-7.2121053E-005	1.8838580E-008
2	1	0	1	1	2.823753928665974E+002	4.3426529E-002	4.3339547E-002	4.675592488855513E-004	2.000000000000000E+000	-7.2087314E-005	2.0263807E-008
2	1	0	0	1	2.824419928649149E+002	4.6756372E-002	4.6676110E-002	4.662135889238309E-004	2.000000000000000E+000	-7.2053750E-005	2.1761037E-008
2	1	0	0	1	2.825086928632300E+002	5.0090652E-002	5.0009370E-002	4.623969535592415E-004	2.000000000000000E+000	-7.2020332E-005	2.3124180E-008
2	1	0	1	1	2.825753928615450E+002	5.3427156E-002	5.3357545E-002	4.598065376244763E-004	2.000000000000000E+000	-7.1987110E-005	2.4534149E-008
2	1	0	0	1	2.826419928598625E+002	5.6755885E-002	5.6690365E-002	4.583998976453729E-004	2.000000000000000E+000	-7.1954062E-005	2.5986857E-008
2	1	0	1	1	2.827085928581801E+002	6.0085729E-002	6.0032122E-002	4.552713440986534E-004	2.000000000000000E+000	-7.1921168E-005	2.7330906E-008
2	1	0	0	1	2.827751928564976E+002	6.3416682E-002	6.3367732E-002	4.534032854983713E-004	2.000000000000000E+000	-7.1888426E-005	2.8731138E-008
2	1	0	0	1	2.828419928548101E+002	6.6755414E-002	6.6673838E-002	4.517856746099388E-004	2.000000000000000E+000	-7.1855742E-005	3.0122283E-008
2	1	0	1	1	2.829085928531276E+002	7.0087463E-002	7.0015885E-002	4.505777511594634E-004	2.000000000000000E+000	-7.1823248E-005	3.1547600E-008
2	1	0	0	1	2.829751928514452E+002	7.3416196E-002	7.3348276E-002	4.491585057547600E-004	2.000000000000000E+000	-7.1790833E-005	3.2945003E-008
2	1	0	1	1	2.830417928497627E+002	7.6744922E-002	7.6671444E-002	4.481405083666887E-004	2.000000000000000E+000	-7.1758492E-005	3.4359580E-008
2	1	0	0	1	2.831083928480803E+002	8.0076985E-002	8.0002680E-002	4.466697768791411E-004	2.000000000000000E+000	-7.1726245E-005	3.5734779E-008
2	1	0	0	1	2.831751928463927E+002	8.3415717E-002	8.3348654E-002	4.453964942849738E-004	2.000000000000000E+000	-7.1693961E-005	3.7123197E-008
2	1	0	1	1	2.832417928447103E+002	8.6746663E-002	8.6663805E-002	4.447205943914354E-004	2.000000000000000E+000	-7.1661845E-005	3.8541177E-008
2	1	0	0	1	2.833083928430278E+002	9.0076506E-002	8.9966767E-002	4.442901734007106E-004	2.000000000000000E+000	-7.1629758E-005	3.9971351E-008
2	1	0	1	1	2.833749928413454E+002	9.3405239E-002	9.3315788E-002	4.436025423871877E-004	2.000000000000000E+000	-7.1597686E-005	4.1395122E-008
2	1	0	0	1	2.834415928396629E+002	9.6737295E-002	9.6649133E-002	4.450612916108831E-004	2.000000000000000E+000	-7.1565606E-005	4.3014786E-008
2	1	0	0	1	2.834883928384807E+002	9.9076405E-002	9.8994464E-002	4.436973724272174E-004	2.000000000000000E+000	-7.1543072E-005	4.3923585E-008
2	0	0	0	1	2.835055928380461E+002	9.9906117E-002	9.9826038E-002	4.385870648548006E-004	2.000000000000000E+000	-7.1534836E-005	4.3782411E-008
2	0	0	0	1	2.835423928371165E+002	9.8070115E-002	9.7966671E-002	3.186482770062612E-004	2.000000000000000E+000	-7.1524206E-005	3.1216910E-008
2	0	0	1	1	2.836089928354340E+002	9.4739176E-002	9.4632506E-002	2.526244140047115E-004	2.000000000000000E+000	-7.1507835E-005	2.3906482E-008
2	0	0	0	1	2.836755928337516E+002	9.1409333E-002	9.1305174E-002	2.006591519629166E-004	2.000000000000000E+000	-7.1495349E-005	1.8321218E-008
2	0	0	1	1	2.837421928320691E+002	8.8080592E-002	8.7957457E-002	1.549438159404481E-004	2.000000000000000E+000	-7.1486094E-005	1.3628464E-008
2	0	0	0	1	2.838087928303867E+002	8.4748544E-002	8.4635980E-002	1.135167876473845E-004	2.000000000000000E+000	-7.1479735E-005	9.6076045E-009
2	0	0	0	1	2.838755928286992E+002	8.1409819E-002	8.1290424E-002	7.392949094001458E-005	2.000000000000000E+000	-7.1476046E-005	6.0097598E-009
2	0	0	1	1	2.839421928270167E+002	7.8078859E-002	7.7977203E-002	3.678901924903896E-005	2.000000000000000E+000	-7.1474904E-005	2.8687048E-009
2	0	0	0	1	2.840087928253342E+002	7.4749023E-002	7.4633397E-002	1.910139152754976E-006	2.000000000000000E+000	-7.1476163E-005	1.4256017E-010
2	0	0	1	1	2.840753928236518E+002	7.1420297E-002	7.1303584E-002	-3.031449323226198E-005	2.000000000000000E+000	-7.1479655E-005	2.1615321E-009
2	0	0	1	1	2.841420928219668E+002	6.8083778E-002	6.7976333E-002	-6.271954078752401E-005	2.000000000000000E+000	-7.1485309E-005	4.2634443E-009
2	0	0	0	1	2.842087928202818E+002	6.4749509E-002	6.4629614E-002	-9.322977660782439E-005	2.000000000000000E+000	-7.1493021E-005	6.0254046E-009
2	0	0	1	1	2.842753928185994E+002	6.1419666E-002	6.1325315E-002	-1.223014809953434E-004	2.000000000000000E+000	-7.1502713E-005	7.5001765E-009
2	0	0	0	1	2.843419928169169E+002	5.8088712E-002	5.7991903E-002	-1.506521789007601E-004	2.000000000000000E+000	-7.1514311E-005	8.7366070E-009
2	0	0	1	1	2.844085928152344E+002	5.4759979E-002	5.4663047E-002	-1.777131389874676E-004	2.000000000000000E+000	-7.1527771E-005	9.7143413E-009
2	0	0	1	1	2.844752928135495E+002	5.1424589E-002	5.1305577E-002	-2.042947530674112E-004	2.000000000000000E+000	-7.1543036E-005	1.0481460E-008
2	0	0	0	1	2.845419928118645E+002	4.8089195E-002	4.7972549E-002	-2.298545851267880E-004	2.000000000000000E+000	-7.1560025E-005	1.1026710E-008
2	0	0	1	1	2.846085928101820E+002	4.4760466E-002	4.4640306E-002	-2.555088059227649E-004	2.000000000000000E+000	-7.1578674E-005	1.1405992E-008
2	0	0	0	1	2.846751928084996E+002	4.1428402E-002	4.1288465E-002	-2.793794735121841E-004	2.000000000000000E+000	-7.1598981E-005	1.1535150E-008
2	0	0	1	1	2.847417928068171E+002	3.8099676E-002	3.7967134E-002	-3.016815871791662E-004	2.000000000000000E+000	-7.1620838E-005	1.1453985E-008
2	0	0	1	1	2.848084928051321E+002	3.4764282E-002	3.4625951E-002	-3.258319551789103E-004	2.000000000000000E+000	-7.1644266E-005	1.1282242E-008
2	0	0	0	1	2.848751928034471E+002	3.1428888E-002	3.1269312E-002	-3.465622447157853E-004	2.000000000000000E+000	-7.1669165E-005	1.0836763E-008
2	0	0	1	1	2.849417928017647E+002	2.8100159E-002	2.7952958E-002	-3.689423455763355E-004	2.000000000000000E+000	-7.1695489E-005	1.0313030E-008
2	0	0	0	1	2.850083928000822E+002	2.4769207E-002	2.4631890E-002	-3.895197366661934E-004	2.000000000000000E+000	-7.1723225E-005	9.5946069E-009
2	0	0	1	1	2.850749927983998E+002	2.1439368E-002	2.1299057E-002	-4.095923186972297E-004	2.000000000000000E+000	-7.1752336E-005	8.7239300E-009
2	0	0	1	1	2.851416927967148E+002	1.8105088E-002	1.7965738E-002	-4.294107923513684E-004	2.000000000000000E+000	-7.1782772E-005	7.7146813E-009
2	0	0	0	1	2.852083927950298E+002	1.4768582E-002	1.4645079E-002	-4.479188648985724E-004	2.000000000000000E+000	-7.1814546E-005	6.5598074E-009
2	0	0	1	1	2.852749927933473E+002	1.1439851E-002	1.1290882E-002	-4.684795696320819E-004	2.000000000000000E+000	-7.1847549E-005	5.2895475E-009
2	0	0	0	1	2.853415927916649E+002	8.1100110E-003	7.9547307E-003	-4.878766848828496E-004	2.000000000000000E+000	-7.1881870E-005	3.8809276E-009
2	0	0	1	1	2.854081927899824E+002	4.7790608E-003	4.6452354E-003	-5.053549468170973E-004	2.000000000000000E+000	-7.1917406E-005	2.3474926E-009
2	0	0	1	1	2.854749927882949E+002	1.4403351E-003	1.2599479E-003	-5.248657563924129E-004	2.000000000000000E+000	-7.1954317E-005	6.6130351E-010
2	0	0	0	1	2.855415927866125E+002	-1.8917271E-003	-2.0807825E-003	-5.422134550430446E-004	2.000000000000000E+000	-7.1992341E-005	1.1282283E-009
2	0	0	1	1	2.856081927849300E+002	-5.2204579E-003	-5.3904690E-003	-5.587560877229093E-004	2.000000000000000E+000	-7.2031486E-005	3.0119574E-009
2	0	0	0	1	2.856747927832475E+002	-8.5491892E-003	-8.7334644E-003	-5.761751551930632E-004	2.000000000000000E+000	-7.2071773E-005	5.0320050E-009
2	0	0	1	1	2.857413927815651E+002	-1.1881252E-002	-1.2058635E-002	-5.925274210200875E-004	2.000000000000000E+000	-7.2113187E-005	7.1450721E-009
2	0	0	1	1	2.858081927798776E+002	-1.5219980E-002	-1.5410812E-002	-6.094080253540787E-004	2.000000000000000E+000	-7.2155817E-005	9.3914725E-009
2	0	0	0	1	2.858747927781951E+002	-1.8550932E-002	-1.8727908E-002	-6.248565846402147E-004	2.000000000000000E+000	-7.2199386E-005	1.1702257E-008
2	0	0	1	1	2.859413927765127E+002	-2.1880774E-002	-2.2050552E-002	-6.414706485506341E-004	2.000000000000000E+000	-7.2244024E-005	1.4144782E-008
2	0	0	0	1	2.860079927748302E+002	-2.5209503E-002	-2.5381207E-002	-6.562425685482896E-004	2.000000000000000E+000	-7.2289709E-005	1.6656228E-008
2	0	0	1	1	2.860745927731477E+002	-2.8541567E-002	-2.8718753E-002	-6.717238459681375E-004	2.000000000000000E+000	-7.2336414E-005	1.9291072E-008
2	0	0	1	1	2.861413927714602E+002	-3.1880297E-002	-3.2053463E-002	-6.874042051688133E-004	2.000000000000000E+000	-7.2384290E-005	2.2033685E-008
2	0	0	0	1	2.862079927697778E+002	-3.5210136E-002	-3.5385564E-002	-7.024672824453902E-004	2.000000000000000E+000	-7.2433017E-005	2.4857201E-008
2	0	0	1	1	2.862745927680953E+002	-3.8541090E-002	-3.8719203E-002	-7.178866203441043E-004	2.000000000000000E+000	-7.2482733E-005	2.7795998E-008
2	0	0	0	1	2.863411927664129E+002	-4.1869819E-002	-4.2081989E-002	-7.323852786913203E-004	2.000000000000000E+000	-7.2533454E-005	3.0820228E-008
2	0	0	0	1	2.864078927647279E+002	-4.5206331E-002	-4.5405395E-002	-7.459857814984443E-004	2.000000000000000E+000	-7.2585201E-005	3.3871778E-008
2	0	0	1	1	2.864745927630429E+002	-4.8540607E-002	-4.8745368E-002	-7.598559364751251E-004	2.000000000000000E+000	-7.2637857E-005	3.7039456E-008
2	0	0	0	1	2.865411927613604E+002	-5.1869340E-002	-5.2072674E-002	-7.745325873072303E-004	2.000000000000000E+000	-7.2691408E-005	4.0331983E-008
2	0	0	1	1	2.866077927596780E+002	-5.5201408E-002	-5.5409297E-002	-7.880501668507565E-004	2.000000000000000E+000	-7.2745890E-005	4.3665306E-008
2	0	0	0	1	2.866743927579955E+002	-5.8530133E-002	-5.8746397E-002	-8.022102248853320E-004	2.000000000000000E+000	-7.2801289E-005	4.7126960E-008
2	0	0	0	1	2.867410927563105E+002	-6.1865527E-002	-6.2066581E-002	-8.157113256592463E-004	2.000000000000000E+000	-7.2857641E-005	5.0628412E-008
2	0	0	1	1	2.868077927546256E+002	-6.5200932E-002	-6.5396748E-002	-8.291276616758398E-004	2.000000000000000E+000	-7.2914918E-005	5.4222252E-008
2	0	0	0	1	2.868743927529431E+002	-6.8529658E-002	-6.8727456E-002	-8.421528856961801E-004	2.000000000000000E+000	-7.2972995E-005	5.7879024E-008
2	0	0	1	1	2.869409927512606E+002	-7.1861722E-002	-7.2055146E-002	-8.563194084633997E-004	2.000000000000000E+000	-7.3031981E-005	6.1702217E-008
2	0	0	0	1	2.870075927495782E+002	-7.5190462E-002	-7.5406022E-002	-8.684589005205738E-004	2.000000000000000E+000	-7.3091862E-005	6.5487029E-008
2	0	0	0	1	2.870742927478932E+002	-7.8524731E-002	-7.8729212E-002	-8.822873963379517E-004	2.000000000000000E+000	-7.3152674E-005	6.9461791E-008
2	0	0	1	1	2.871409927462082E+002	-8.1861235E-002	-8.2065865E-002	-8.957478777583943E-004	2.000000000000000E+000	-7.3214382E-005	7.3510321E-008
2	0	0	0	1	2.872075927445258E+002	-8.5189983E-002	-8.5379951E-002	-9.077017022198902E-004	2.000000000000000E+000	-7.3276868E-005	7.7499529E-008
2	0	0	1	1	2.872741927428433E+002	-8.8520922E-002	-8.8693224E-002	-9.211465515550354E-004	2.000000000000000E+000	-7.3340176E-005	8.1699454E-008
2	0	0	0	1	2.873574927407390E+002	-9.2686757E-002	-9.2854001E-002	-9.255581115725688E-004	2.000000000000000E+000	-7.3421565E-005	8.5941771E-008
2	0	0	0	1	2.874407927386346E+002	-9.6849971E-002	-9.7011343E-002	-9.397685145758243E-004	2.000000000000000E+000	-7.3503979E-005	9.1168204E-008
2	0	0	1	1	2.875073927369522E+002	-1.0018092E-001	-1.0033105E-001	-9.513695020694057E-004	2.000000000000000E+000	-7.3570183E-005	9.5451902E-008
2	0	0	1	1	2.875741927352647E+002	-1.0351965E-001	-1.0367409E-001	-9.648055530431642E-004	2.000000000000000E+000	-7.3637420E-005	1.0002534E-007
2	0	0	0	1	2.876407927335822E+002	-1.0685170E-001	-1.0700057E-001	-9.777068325750350E-004	2.000000000000000E+000	-7.3705298E-005	1.0461518E-007
2	0	0	1	1	2.877073927318997E+002	-1.1018044E-001	-1.1032057E-001	-9.904082609659155E-004	2.000000000000000E+000	-7.3774056E-005	1.0926240E-007
2	0	0	0	1	2.877739927302173E+002	-1.1351029E-001	-1.1365296E-001	-1.003999258874803E-003	2.000000000000000E+000	-7.3843679E-005	1.1410749E-007
2	0	0	1	1	2.878405927285348E+002	-1.1684124E-001	-1.1698667E-001	-1.016048588733327E-003	2.000000000000000E+000	-7.3914183E-005	1.1886414E-007
2	0	0	1	1	2.879073927268473E+002	-1.2017997E-001	-1.2032683E-001	-1.029038962172713E-003	2.000000000000000E+000	-7.3985757E-005	1.2382100E-007
2	0	0	0	1	2.879739927251649E+002	-1.2351092E-001	-1.2365894E-001	-1.042378308559147E-003	2.000000000000000E+000	-7.4058000E-005	1.2889940E-007
2	0	0	1	1	2.880405927234824E+002	-1.2684076E-001	-1.2700000E-001	-1.056156066245983E-003	2.000000000000000E+000	-7.4131181E-005	1.3413182E-007
2	0	0	0	1	2.881071927217999E+002	-1.3016950E-001	-1.3033859E-001	-1.069895431316218E-003	2.000000000000000E+000	-7.4205280E-005	1.3944867E-007
2	0	0	1	1	2.881737927201175E+002	-1.3350156E-001	-1.3365677E-001	-1.083577173678693E-003	2.000000000000000E+000	-7.4280266E-005	1.4482742E-007
2	0	0	1	1	2.882405927184300E+002	-1.3684028E-001	-1.3702628E-001	-1.098685409456471E-003	2.000000000000000E+000	-7.4356445E-005	1.5054877E-007
2	0	0	0	1	2.883071927167475E+002	-1.4017011E-001	-1.4033929E-001	-1.112891341559860E-003	2.000000000000000E+000	-7.4433367E-005	1.5618238E-007
2	0	0	1	1	2.883737927150651E+002	-1.4350107E-001	-1.4367610E-001	-1.127889098856964E-003	2.000000000000000E+000	-7.4511277E-005	1.6205071E-007
2	0	0	0	1	2.884403927133826E+002	-1.4682980E-001	-1.4700846E-001	-1.144406317290746E-003	2.000000000000000E+000	-7.4590207E-005	1.6823742E-007
2	0	0	0	1	2.885070927116976E+002	-1.5016632E-001	-1.5031788E-001	-1.160249047554438E-003	2.000000000000000E+000	-7.4670308E-005	1.7440617E-007
2	0	0	1	1	2.885737927100126E+002	-1.5350060E-001	-1.5364750E-001	-1.175898664268513E-003	2.000000000000000E+000	-7.4751471E-005	1.8067389E-007
2	0	0	0	1	2.886403927083302E+002	-1.5683044E-001	-1.5698431E-001	-1.194250026802523E-003	2.000000000000000E+000	-7.4833661E-005	1.8747852E-007
2	0	0	1	1	2.887069927066477E+002	-1.6016141E-001	-1.6032025E-001	-1.213367987685655E-003	2.000000000000000E+000	-7.4917094E-005	1.9452746E-007
2	0	0	0	1	2.887735927049653E+002	-1.6349013E-001	-1.6365768E-001	-1.231443881734750E-003	2.000000000000000E+000	-7.5001743E-005	2.0153524E-007
2	0	0	0	1	2.888402927032803E+002	-1.6682550E-001	-1.6700998E-001	-1.251054261391583E-003	2.000000000000000E+000	-7.5087795E-005	2.0893854E-007
2	0	0	1	1	2.889069927015953E+002	-1.7016093E-001	-1.7034672E-001	-1.271142020688988E-003	2.000000000000000E+000	-7.5175201E-005	2.1653487E-007
2	0	0	0	1	2.889735926999128E+002	-1.7348966E-001	-1.7366236E-001	-1.292726723134049E-003	2.000000000000000E+000	-7.5263844E-005	2.2449798E-007
2	0	0	1	1	2.890401926982304E+002	-1.7682172E-001	-1.7699763E-001	-1.314328091758760E-003	2.000000000000000E+000	-7.5353892E-005	2.3263296E-007
2	0	0	0	1	2.891067926965479E+002	-1.8015043E-001	-1.8032941E-001	-1.336372535836215E-003	2.000000000000000E+000	-7.5445416E-005	2.4098728E-007
2	0	0	0	1	2.891734926948629E+002	-1.8348472E-001	-1.8366843E-001	-1.359531782697004E-003	2.000000000000000E+000	-7.5538606E-005	2.4970308E-007
2	0	0	1	1	2.892401926931780E+002	-1.8682124E-001	-1.8701093E-001	-1.382419103112487E-003	2.000000000000000E+000	-7.5633332E-005	2.5852748E-007
2	0	0	0	1	2.893067926914955E+002	-1.9014995E-001	-1.9032505E-001	-1.406079218081675E-003	2.000000000000000E+000	-7.5729506E-005	2.6761211E-007
2	0	0	1	1	2.893733926898130E+002	-1.9348092E-001	-1.9364026E-001	-1.432459988432961E-003	2.000000000000000E+000	-7.5827331E-005	2.7738193E-007
2	0	0	0	1	2.894399926881306E+002	-1.9681077E-001	-1.9696832E-001	-1.456600791044371E-003	2.000000000000000E+000	-7.5926822E-005	2.8690420E-007
2	0	0	0	1	2.895067926864431E+002	-2.0014951E-001	-2.0031942E-001	-1.483583390606658E-003	2.000000000000000E+000	-7.6028336E-005	2.9719058E-007
2	0	0	1	1	2.895733926847606E+002	-2.0348154E-001	-2.0365550E-001	-1.509792168387175E-003	2.000000000000000E+000	-7.6131299E-005	3.0747748E-007
2	0	0	0	1	2.896399926830782E+002	-2.0681027E-001	-2.0697640E-001	-1.536277232017527E-003	2.000000000000000E+000	-7.6236051E-005	3.1797313E-007
2	0	0	1	1	2.897065926813957E+002	-2.1014011E-001	-2.1031398E-001	-1.563831251431164E-003	2.000000000000000E+000	-7.6342607E-005	3.2889557E-007
2	0	0	0	1	2.897731926797132E+002	-2.1347108E-001	-2.1366325E-001	-1.593109890525969E-003	2.000000000000000E+000	-7.6451091E-005	3.4038905E-007
2	0	0	0	1	2.898399926780257E+002	-2.1680979E-001	-2.1700911E-001	-1.621021754142291E-003	2.000000000000000E+000	-7.6561701E-005	3.5177649E-007
2	0	0	1	1	2.899065926763433E+002	-2.2014186E-001	-2.2030887E-001	-1.649925519503756E-003	2.000000000000000E+000	-7.6673932E-005	3.6349323E-007
2	0	0	0	1	2.899731926746608E+002	-2.2347060E-001	-2.2367990E-001	-1.679520420615976E-003	2.000000000000000E+000	-7.6788128E-005	3.7567497E-007
2	0	0	1	1	2.900397926729784E+002	-2.2679932E-001	-2.2699295E-001	-1.709886607327371E-003	2.000000000000000E+000	-7.6904325E-005	3.8813221E-007
2	0	0	0	1	2.901063926712959E+002	-2.3013139E-001	-2.3031500E-001	-1.740349249764711E-003	2.000000000000000E+000	-7.7022516E-005	4.0082853E-007
2	0	0	0	1	2.901731926696084E+002	-2.3347011E-001	-2.3364553E-001	-1.770277435334207E-003	2.000000000000000E+000	-7.7143115E-005	4.1361741E-007
2	0	0	1	1	2.902397926679259E+002	-2.3680107E-001	-2.3699531E-001	-1.803692465149262E-003	2.000000000000000E+000	-7.7265460E-005	4.2746666E-007
2	0	0	0	1	2.903063926662435E+002	-2.4013090E-001	-2.4030274E-001	-1.835558364012908E-003	2.000000000000000E+000	-7.7389959E-005	4.4108970E-007
2	0	0	1	1	2.903729926645610E+002	-2.4345963E-001	-2.4363565E-001	-1.868785068743131E-003	2.000000000000000E+000	-7.7516612E-005	4.5530268E-007
2	0	0	1	1	2.904396926628760E+002	-2.4679613E-001	-2.4698658E-001	-1.901643252886947E-003	2.000000000000000E+000	-7.7645687E-005	4.6968037E-007
2	0	0	0	1	2.905063926611911E+002	-2.5013044E-001	-2.5030270E-001	-1.934396202247463E-003	2.000000000000000E+000	-7.7776975E-005	4.8418462E-007
2	0	0	1	1	2.905729926595086E+002	-2.5346026E-001	-2.5365329E-001	-1.968278600231320E-003	2.000000000000000E+000	-7.7910292E-005	4.9926035E-007
2	0	0	0	1	2.906395926578261E+002	-2.5679123E-001	-2.5695384E-001	-2.002915824687992E-003	2.000000000000000E+000	-7.8045887E-005	5.1465690E-007
2	0	0	1	1	2.907061926561437E+002	-2.6011994E-001	-2.6027840E-001	-2.038219258134075E-003	2.000000000000000E+000	-7.8183781E-005	5.3050445E-007
2	0	0	1	1	2.907728926544587E+002	-2.6345643E-001	-2.6361403E-001	-2.073744786537268E-003	2.000000000000000E+000	-7.8324236E-005	5.4666822E-007
2	0	0	0	1	2.908395926527737E+002	-2.6679075E-001	-2.6696014E-001	-2.108537573673925E-003	2.000000000000000E+000	-7.8467107E-005	5.6289548E-007
2	0	0	1	1	2.909061926510913E+002	-2.7011949E-001	-2.7028298E-001	-2.146053422213058E-003	2.000000000000000E+000	-7.8612131E-005	5.8004173E-007
2	0	0	0	1	2.909727926494088E+002	-2.7345154E-001	-2.7362245E-001	-2.182122200986271E-003	2.000000000000000E+000	-7.8759600E-005	5.9707764E-007
2	0	0	1	1	2.910393926477263E+002	-2.7678025E-001	-2.7693918E-001	-2.217828065911412E-003	2.000000000000000E+000	-7.8909499E-005	6.1420349E-007
2	0	0	1	1	2.911060926460414E+002	-2.8011566E-001	-2.8026924E-001	-2.255935758251636E-003	2.000000000000000E+000	-7.9062062E-005	6.3226940E-007
2	0	0	0	1	2.911727926443564E+002	-2.8345108E-001	-2.8360337E-001	-2.293741012179683E-003	2.000000000000000E+000	-7.9217134E-005	6.5051267E-007
2	0	0	1	1	2.912393926426739E+002	-2.8677976E-001	-2.8692976E-001	-2.331060042424976E-003	2.000000000000000E+000	-7.9374542E-005	6.6885048E-007
2	0	0	0	1	2.913059926409915E+002	-2.9011074E-001	-2.9027066E-001	-2.369986109934628E-003	2.000000000000000E+000	-7.9534497E-005	6.8793742E-007
2	0	0	1	1	2.913725926393090E+002	-2.9344061E-001	-2.9359367E-001	-2.409186952187274E-003	2.000000000000000E+000	-7.9697027E-005	7.0732204E-007
2	0	0	1	1	2.914392926376240E+002	-2.9677486E-001	-2.9694352E-001	-2.449705264058962E-003	2.000000000000000E+000	-7.9862446E-005	7.2742409E-007
2	0	0	0	1	2.915059926359390E+002	-3.0011138E-001	-3.0029151E-001	-2.489420345046674E-003	2.000000000000000E+000	-8.0030535E-005	7.4755178E-007
2	0	0	1	1	2.915725926342566E+002	-3.0344012E-001	-3.0360550E-001	-2.529055108559726E-003	2.000000000000000E+000	-8.0201011E-005	7.6783505E-007
2	0	0	0	1	2.916391926325741E+002	-3.0677104E-001	-3.0696592E-001	-2.571173079795909E-003	2.000000000000000E+000	-8.0374208E-005	7.8926251E-007
2	0	0	1	1	2.917057926308917E+002	-3.1010091E-001	-3.1028581E-001	-2.610814710790495E-003	2.000000000000000E+000	-8.0550119E-005	8.1009875E-007
2	0	0	1	1	2.917725926292042E+002	-3.1343964E-001	-3.1363395E-001	-2.651280955900549E-003	2.000000000000000E+000	-8.0729260E-005	8.3153174E-007
2	0	0	0	1	2.918391926275217E+002	-3.1677169E-001	-3.1697199E-001	-2.693694470894951E-003	2.000000000000000E+000	-8.0910635E-005	8.5382567E-007
2	0	0	1	1	2.919057926258392E+002	-3.2010043E-001	-3.2029343E-001	-2.735359871771488E-003	2.000000000000000E+000	-8.1094789E-005	8.7611778E-007
2	0	0	0	1	2.919723926241568E+002	-3.2343030E-001	-3.2360008E-001	-2.777720010939386E-003	2.000000000000000E+000	-8.1281745E-005	8.9887044E-007
2	0	0	1	1	2.920389926224743E+002	-3.2676122E-001	-3.2693326E-001	-2.821451120065828E-003	2.000000000000000E+000	-8.1471611E-005	9.2242624E-007
2	0	0	1	1	2.921057926207868E+002	-3.3009994E-001	-3.3028167E-001	-2.865688437310950E-003	2.000000000000000E+000	-8.1664977E-005	9.4648436E-007
2	0	0	0	1	2.921723926191044E+002	-3.3343089E-001	-3.3361697E-001	-2.908884473849460E-003	2.000000000000000E+000	-8.1860693E-005	9.7045324E-007
2	0	0	1	1	2.922389926174219E+002	-3.3676070E-001	-3.3694124E-001	-2.953697113140932E-003	2.000000000000000E+000	-8.2059320E-005	9.9522242E-007
2	0	0	0	1	2.923055926157394E+002	-3.4008947E-001	-3.4030613E-001	-3.000132567233707E-003	2.000000000000000E+000	-8.2261024E-005	1.0209635E-006
2	0	0	1	1	2.923721926140570E+002	-3.4342155E-001	-3.4364837E-001	-3.045897045703339E-003	2.000000000000000E+000	-8.2465769E-005	1.0467176E-006
2	0	0	1	1	2.924389926123695E+002	-3.4676027E-001	-3.4697342E-001	-3.090735159262149E-003	2.000000000000000E+000	-8.2674123E-005	1.0724029E-006
2	0	0	0	1	2.925055926106870E+002	-3.5009009E-001	-3.5031843E-001	-3.137963751642554E-003	2.000000000000000E+000	-8.2884966E-005	1.0992866E-006
2	0	0	1	1	2.925721926090046E+002	-3.5342106E-001	-3.5363391E-001	-3.185343760316706E-003	2.000000000000000E+000	-8.3098901E-005	1.1264456E-006
2	0	0	0	1	2.926387926073221E+002	-3.5674980E-001	-3.5695779E-001	-3.230369857585383E-003	2.000000000000000E+000	-8.3315928E-005	1.1531057E-006
2	0	0	0	1	2.927054926056371E+002	-3.6008626E-001	-3.6028740E-001	-3.277626377052556E-003	2.000000000000000E+000	-8.3536368E-005	1.1808875E-006
2	0	0	1	1	2.927721926039521E+002	-3.6342058E-001	-3.6362234E-001	-3.325181615927333E-003	2.000000000000000E+000	-8.3759980E-005	1.2091103E-006
2	0	0	0	1	2.928387926022697E+002	-3.6675039E-001	-3.6693701E-001	-3.371464223569223E-003	2.000000000000000E+000	-8.3986401E-005	1.2371150E-006
2	0	0	1	1	2.929053926005872E+002	-3.7008137E-001	-3.7027508E-001	-3.421169084693754E-003	2.000000000000000E+000	-8.4216008E-005	1.2667737E-006
2	0	0	0	1	2.929719925989048E+002	-3.7341011E-001	-3.7361047E-001	-3.468881650292802E-003	2.000000000000000E+000	-8.4448868E-005	1.2960105E-006
2	0	0	0	1	2.930386925972198E+002	-3.7674549E-001	-3.7692970E-001	-3.516978907176727E-003	2.000000000000000E+000	-8.4685256E-005	1.3256538E-006
2	0	0	1	1	2.931053925955348E+002	-3.8008085E-001	-3.8029787E-001	-3.565452433684099E-003	2.000000000000000E+000	-8.4924905E-005	1.3559339E-006
2	0	0	0	1	2.931719925938523E+002	-3.8340959E-001	-3.8363746E-001	-3.614470694560758E-003	2.000000000000000E+000	-8.5167499E-005	1.3866463E-006
2	0	0	1	1	2.932385925921699E+002	-3.8674167E-001	-3.8698208E-001	-3.664991558589164E-003	2.000000000000000E+000	-8.5413361E-005	1.4182860E-006
2	0	0	0	1	2.933051925904874E+002	-3.9007041E-001	-3.9029905E-001	-3.712905641275341E-003	2.000000000000000E+000	-8.5662461E-005	1.4491435E-006
2	0	0	0	1	2.933718925888024E+002	-3.9340466E-001	-3.9363679E-001	-3.762408998630076E-003	2.000000000000000E+000	-8.5915206E-005	1.4810227E-006
2	0	0	1	1	2.934385925871175E+002	-3.9674124E-001	-3.9698589E-001	-3.812885601994484E-003	2.000000000000000E+000	-8.6171283E-005	1.5136618E-006
2	0	0	0	1	2.935051925854350E+002	-4.0006995E-001	-4.0030882E-001	-3.860548317615883E-003	2.000000000000000E+000	-8.6430206E-005	1.5454116E-006
2	0	0	1	1	2.935717925837525E+002	-4.0340090E-001	-4.0363079E-001	-3.910617848865153E-003	2.000000000000000E+000	-8.6692402E-005	1.5784458E-006
2	0	0	0	1	2.936383925820701E+002	-4.0673071E-001	-4.0692693E-001	-3.959097874914283E-003	2.000000000000000E+000	-8.6957873E-005	1.6110636E-006
2	0	0	0	1	2.937050925803851E+002	-4.1006500E-001	-4.1026217E-001	-4.008342485990243E-003	2.000000000000000E+000	-8.7227010E-005	1.6444712E-006
2	0	0	1	1	2.937717925787001E+002	-4.1340154E-001	-4.1360319E-001	-4.057737645355282E-003	2.000000000000000E+000	-8.7499466E-005	1.6782932E-006
2	0	0	0	1	2.938383925770177E+002	-4.1673025E-001	-4.1694388E-001	-4.107879400911466E-003	2.000000000000000E+000	-8.7774824E-005	1.7127552E-006
2	0	0	1	1	2.939049925753352E+002	-4.2006010E-001	-4.2027697E-001	-4.154555230560450E-003	2.000000000000000E+000	-8.8053421E-005	1.7460638E-006
2	0	0	0	1	2.939715925736527E+002	-4.2339104E-001	-4.2362639E-001	-4.206463705973045E-003	2.000000000000000E+000	-8.8335291E-005	1.7819691E-006
2	0	0	0	1	2.940383925719652E+002	-4.2672980E-001	-4.2693830E-001	-4.254335584715309E-003	2.000000000000000E+000	-8.8621273E-005	1.8163388E-006
2	0	0	1	1	2.941049925702828E+002	-4.3006185E-001	-4.3026850E-001	-4.301623687550257E-003	2.000000000000000E+000	-8.8909612E-005	1.8508532E-006
2	0	0	0	1	2.941715925686003E+002	-4.3339059E-001	-4.3359604E-001	-4.350679356016449E-003	2.000000000000000E+000	-8.9201203E-005	1.8864374E-006
2	0	0	1	1	2.942381925669179E+002	-4.3671930E-001	-4.3694991E-001	-4.398783042777799E-003	2.000000000000000E+000	-8.9496032E-005	1.9220479E-006
2	0	0	0	1	2.943047925652354E+002	-4.4005138E-001	-4.4026768E-001	-4.448054596414730E-003	2.000000000000000E+000	-8.9794063E-005	1.9583347E-006
2	0	0	0	1	2.943715925635479E+002	-4.4339013E-001	-4.4360891E-001	-4.495440397909264E-003	2.000000000000000E+000	-9.0096146E-005	1.9942174E-006
2	0	0	1	1	2.944381925618654E+002	-4.4672105E-001	-4.4690919E-001	-4.541764445364176E-003	2.000000000000000E+000	-9.0400514E-005	2.0297562E-006
2	0	0	0	1	2.945047925601830E+002	-4.5005089E-001	-4.5024231E-001	-4.589081667149962E-003	2.000000000000000E+000	-9.0707996E-005	2.0661987E-006
2	0	0	1	1	2.945713925585005E+002	-4.5337960E-001	-4.5357364E-001	-4.637193244737756E-003	2.000000000000000E+000	-9.1018643E-005	2.1033086E-006
2	0	0	0	1	2.946379925568181E+002	-4.5671171E-001	-4.5690912E-001	-4.684229292928999E-003	2.000000000000000E+000	-9.1332462E-005	2.1402670E-006
2	0	0	0	1	2.947047925551306E+002	-4.6005040E-001	-4.6025628E-001	-4.729609410090152E-003	2.000000000000000E+000	-9.1650356E-005	2.1768324E-006
2	0	0	1	1	2.947713925534481E+002	-4.6338022E-001	-4.6358511E-001	-4.775645469349818E-003	2.000000000000000E+000	-9.1970360E-005	2.2139182E-006
2	0	0	0	1	2.948379925517656E+002	-4.6671119E-001	-4.6692055E-001	-4.822337703767554E-003	2.000000000000000E+000	-9.2293441E-005	2.2516485E-006
2	0	0	1	1	2.949045925500832E+002	-4.7003987E-001	-4.7028282E-001	-4.869864448822064E-003	2.000000000000000E+000	-9.2619710E-005	2.2902136E-006
2	0	0	1	1	2.949712925483982E+002	-4.7337639E-001	-4.7361109E-001	-4.915044545239208E-003	2.000000000000000E+000	-9.2949442E-005	2.3278196E-006
2	0	0	0	1	2.950379925467132E+002	-4.7671071E-001	-4.7693294E-001	-4.959791458655313E-003	2.000000000000000E+000	-9.3282171E-005	2.3654879E-006
2	0	0	1	1	2.951045925450308E+002	-4.8003945E-001	-4.8026866E-001	-5.005864407895081E-003	2.000000000000000E+000	-9.3617484E-005	2.4041599E-006
2	0	0	0	1	2.951711925433483E+002	-4.8337150E-001	-4.8358902E-001	-5.049407218520416E-003	2.000000000000000E+000	-9.3955758E-005	2.4418380E-006
2	0	0	1	1	2.952377925416658E+002	-4.8670027E-001	-4.8691073E-001	-5.094127670208948E-003	2.000000000000000E+000	-9.4297007E-005	2.4803853E-006
2	0	0	1	1	2.953044925399809E+002	-4.9003562E-001	-4.9024794E-001	-5.138323700883768E-003	2.000000000000000E+000	-9.4641662E-005	2.5190525E-006
2	0	0	0	1	2.953711925382959E+002	-4.9337104E-001	-4.9359435E-001	-5.184283903340896E-003	2.000000000000000E+000	-9.4989366E-005	2.5589331E-006
2	0	0	1	1	2.954377925366134E+002	-4.9669975E-001	-4.9691769E-001	-5.229156790931458E-003	2.000000000000000E+000	-9.5339594E-005	2.5984605E-006
2	0	0	0	1	2.955043925349310E+002	-5.0003076E-001	-5.0025451E-001	-5.275354833099426E-003	2.000000000000000E+000	-9.5692885E-005	2.6390201E-006
2	0	0	1	1	2.955709925332485E+002	-5.0336057E-001	-5.0358588E-001	-5.321212048764824E-003	2.000000000000000E+000	-9.6049218E-005	2.6796872E-006
2	0	0	1	1	2.956376925315635E+002	-5.0669479E-001	-5.0691164E-001	-5.367077182084817E-003	2.000000000000000E+000	-9.6409080E-005	2.7206338E-006
2	0	0	0	1	2.957043925298785E+002	-5.1003134E-001	-5.1026523E-001	-5.411638817049896E-003	2.000000000000000E+000	-9.6771990E-005	2.7613712E-006
2	0	0	1	1	2.957709925281961E+002	-5.1336008E-001	-5.1357943E-001	-5.457882981879686E-003	2.000000000000000E+000	-9.7137374E-005	2.8030565E-006
2	0	0	0	1	2.958375925265136E+002	-5.1669103E-001	-5.1691890E-001	-5.503406188969932E-003	2.000000000000000E+000	-9.7505872E-005	2.8448146E-006
2	0	0	1	1	2.959041925248312E+002	-5.2002090E-001	-5.2023715E-001	-5.552234767292843E-003	2.000000000000000E+000	-9.7877499E-005	2.8884788E-006
2	0	0	1	1	2.959709925231437E+002	-5.2335966E-001	-5.2359015E-001	-5.597381223341080E-003	2.000000000000000E+000	-9.8253338E-005	2.9307337E-006
2	0	0	0	1	2.960375925214612E+002	-5.2669168E-001	-5.2692968E-001	-5.645857614404559E-003	2.000000000000000E+000	-9.8631222E-005	2.9749699E-006
2	0	0	1	1	2.961041925197787E+002	-5.3002042E-001	-5.3023505E-001	-5.695194145067292E-003	2.000000000000000E+000	-9.9012359E-005	3.0197916E-006
2	0	0	0	1	2.961707925180963E+002	-5.3335023E-001	-5.3356260E-001	-5.744152642304101E-003	2.000000000000000E+000	-9.9396711E-005	3.0648650E-006
2	0	0	1	1	2.962373925164138E+002	-5.3668123E-001	-5.3689504E-001	-5.794055528602973E-003	2.000000000000000E+000	-9.9784345E-005	3.1107998E-006
2	0	0	1	1	2.963041925147263E+002	-5.4001987E-001	-5.4022747E-001	-5.841818534177395E-003	2.000000000000000E+000	-1.0017641E-004	3.1559109E-006
2	0	0	0	1	2.963707925130439E+002	-5.4335093E-001	-5.4357344E-001	-5.894887705793470E-003	2.000000000000000E+000	-1.0057076E-004	3.2043044E-006
2	0	0	1	1	2.964373925113614E+002	-5.4668069E-001	-5.4689610E-001	-5.946210712814051E-003	2.000000000000000E+000	-1.0096859E-004	3.2519595E-006
2	0	0	0	1	2.965039925096789E+002	-5.5000943E-001	-5.5022734E-001	-6.001705924960327E-003	2.000000000000000E+000	-1.0136995E-004	3.3023027E-006
2	0	0	1	1	2.965705925079965E+002	-5.5334151E-001	-5.5357426E-001	-6.056416655802102E-003	2.000000000000000E+000	-1.0177497E-004	3.3526765E-006
2	0	0	1	1	2.966373925063090E+002	-5.5668026E-001	-5.5692250E-001	-6.114803868265267E-003	2.000000000000000E+000	-1.0218496E-004	3.4054717E-006
2	0	0	0	1	2.967039925046265E+002	-5.6001121E-001	-5.6022489E-001	-6.169717516825574E-003	2.000000000000000E+000	-1.0259748E-004	3.4564293E-006
2	0	0	1	1	2.967705925029441E+002	-5.6334102E-001	-5.6357551E-001	-6.227646699453096E-003	2.000000000000000E+000	-1.0301390E-004	3.5097491E-006
2	0	0	0	1	2.968371925012616E+002	-5.6666976E-001	-5.6690544E-001	-6.289518456410880E-003	2.000000000000000E+000	-1.0343429E-004	3.5655621E-006
2	0	0	0	1	2.969038924995766E+002	-5.7000619E-001	-5.7025051E-001	-6.350135865687324E-003	2.000000000000000E+000	-1.0385930E-004	3.6211682E-006
2	0	0	1	1	2.969705924978916E+002	-5.7334059E-001	-5.7357550E-001	-6.412104039330208E-003	2.000000000000000E+000	-1.0428842E-004	3.6778258E-006
2	0	0	0	1	2.970371924962092E+002	-5.7667041E-001	-5.7689905E-001	-6.477784760845956E-003	2.000000000000000E+000	-1.0472112E-004	3.7370278E-006
2	0	0	1	1	2.971037924945267E+002	-5.8000129E-001	-5.8022475E-001	-6.543020311016244E-003	2.000000000000000E+000	-1.0515813E-004	3.7964223E-006
2	0	0	0	1	2.971703924928443E+002	-5.8333009E-001	-5.8356023E-001	-6.609279755062918E-003	2.000000000000000E+000	-1.0559955E-004	3.8569128E-006
2	0	0	0	1	2.972370924911593E+002	-5.8666539E-001	-5.8689511E-001	-6.682233297770193E-003	2.000000000000000E+000	-1.0604629E-004	3.9217703E-006
2	0	0	1	1	2.973037924894743E+002	-5.9000087E-001	-5.9023178E-001	-6.749900858686306E-003	2.000000000000000E+000	-1.0649766E-004	3.9840061E-006
2	0	0	0	1	2.973703924877918E+002	-5.9332961E-001	-5.9356278E-001	-6.820444794949865E-003	2.000000000000000E+000	-1.0695303E-004	4.0483624E-006
2	0	0	1	1	2.974369924861094E+002	-5.9666163E-001	-5.9689373E-001	-6.895383644914627E-003	2.000000000000000E+000	-1.0741330E-004	4.1158114E-006
2	0	0	0	1	2.974835924849322E+002	-5.9899062E-001	-5.9921724E-001	-6.947727611977428E-003	2.000000000000000E+000	-1.0773781E-004	4.1631984E-006
2	0	0	0	1	2.975003924845078E+002	-5.9982693E-001	-6.0001981E-001	-6.970110711538136E-003	2.000000000000000E+000	-1.0785554E-004	4.1822045E-006