EC-Lab ASCII FILE
Nb header lines : 53                          

Cyclic Voltammetry

Run on channel : 1 (SN 0696)
User : 
Electrode connection : standard
Ewe ctrl range : min = -10.00 V, max = 10.00 V
Ewe,I filtering : 50 kHz
Channel : Grounded
Acquisition started on : 05/17/2017 13:04:41
Saved on :
	File : 100 uM RS 10mM SHU_03_CV_C01.mpr
	Directory : \\userfs\st659\w2k\EC-Lab\Data\ITO Characterisation 17-5-17\
	Host : 144.32.136.43
Device : SP-300 (SN 0182)
Address : USB
EC-Lab for windows v10.44 (software)
Internet server v10.44 (firmware)
Command interpretor v10.44 (firmware)
Electrode material : 
Initial state : 
Electrolyte : 
Comments : 
Cable : standard
Electrode surface area : 0.001 cm²
Characteristic mass : 0.001 g
Equivalent Weight : 0.000 g/eq.
Density : 0.000 g/cm3
Ei (V)              0.000               
vs.                 Eoc                 
dE/dt               100.000             
dE/dt unit          mV/s                
E1 (V)              0.100               
vs.                 Ref                 
Step percent        50                  
N                   10                  
E range min (V)     -10.000             
E range max (V)     10.000              
I Range             Auto                
I Range min         Unset               
I Range max         Unset               
I Range init        Unset               
Bandwidth           8                   
E2 (V)              -0.600              
vs.                 Ref                 
nc cycles           2                   
Reverse Scan        1                   
Ef (V)              0.000               
vs.                 Eoc                 

mode	ox/red	error	control changes	counter inc.	time/s	control/V	Ewe/V	<I>/mA	cycle number	(Q-Qo)/C	P/W
2	1	0	1	1	3.579667909569980E+002	-6.0016018E-001	-6.0033649E-001	-8.359195198863745E-003	2.000000000000000E+000	-2.6651976E-005	5.0183298E-006
2	1	0	0	1	3.579851909565332E+002	-5.9832770E-001	-5.9853506E-001	-7.793548954736995E-003	2.000000000000000E+000	-2.6795567E-005	4.6647124E-006
2	1	0	1	1	3.580185909556894E+002	-5.9498900E-001	-5.9520471E-001	-7.456403498492553E-003	2.000000000000000E+000	-2.7048060E-005	4.4380863E-006
2	1	0	1	1	3.580517909548507E+002	-5.9167027E-001	-5.9189314E-001	-7.204381613668764E-003	2.000000000000000E+000	-2.7289489E-005	4.2642241E-006
2	1	0	0	1	3.580851909540070E+002	-5.8833158E-001	-5.8858442E-001	-6.978296995824779E-003	2.000000000000000E+000	-2.7524386E-005	4.1073167E-006
2	1	0	0	1	3.581183909531683E+002	-5.8500612E-001	-5.8523685E-001	-6.774985516698223E-003	2.000000000000000E+000	-2.7750759E-005	3.9649713E-006
2	1	0	1	1	3.581517909523245E+002	-5.8166736E-001	-5.8190268E-001	-6.583565152853826E-003	2.000000000000000E+000	-2.7971950E-005	3.8309940E-006
2	1	0	0	1	3.581851909514808E+002	-5.7832867E-001	-5.7855487E-001	-6.413022796202997E-003	2.000000000000000E+000	-2.8187129E-005	3.7102855E-006
2	1	0	0	1	3.582183909506421E+002	-5.7500994E-001	-5.7523090E-001	-6.249977277033461E-003	2.000000000000000E+000	-2.8395460E-005	3.5951800E-006
2	1	0	1	1	3.582517909497983E+002	-5.7167125E-001	-5.7189715E-001	-6.097638287950180E-003	2.000000000000000E+000	-2.8599796E-005	3.4872219E-006
2	1	0	0	1	3.582850909489571E+002	-5.6833690E-001	-5.6858242E-001	-5.950686355994925E-003	2.000000000000000E+000	-2.8798499E-005	3.3834556E-006
2	1	0	0	1	3.583183909481158E+002	-5.6500709E-001	-5.6525046E-001	-5.809296927710206E-003	2.000000000000000E+000	-2.8992416E-005	3.2837077E-006
2	1	0	1	1	3.583517909472721E+002	-5.6166834E-001	-5.6190699E-001	-5.675054857608691E-003	2.000000000000000E+000	-2.9182353E-005	3.1888530E-006
2	1	0	1	1	3.583849909464334E+002	-5.5834961E-001	-5.5858153E-001	-5.551991251898786E-003	2.000000000000000E+000	-2.9366887E-005	3.1012398E-006
2	1	0	0	1	3.584183909455896E+002	-5.5501091E-001	-5.5524784E-001	-5.427479763683452E-003	2.000000000000000E+000	-2.9548399E-005	3.0135964E-006
2	1	0	1	1	3.584516909447484E+002	-5.5167878E-001	-5.5188423E-001	-5.308978697618413E-003	2.000000000000000E+000	-2.9725374E-005	2.9299417E-006
2	1	0	1	1	3.584849909439072E+002	-5.4834676E-001	-5.4857332E-001	-5.198099127058691E-003	2.000000000000000E+000	-2.9898494E-005	2.8515385E-006
2	1	0	0	1	3.585183909430634E+002	-5.4500806E-001	-5.4520887E-001	-5.092526363819006E-003	2.000000000000000E+000	-3.0068499E-005	2.7764906E-006
2	1	0	0	1	3.585515909422247E+002	-5.4168934E-001	-5.4188716E-001	-4.984852884587816E-003	2.000000000000000E+000	-3.0233939E-005	2.7012277E-006
2	1	0	1	1	3.585849909413810E+002	-5.3835058E-001	-5.3854686E-001	-4.884122480386104E-003	2.000000000000000E+000	-3.0396972E-005	2.6303289E-006
2	1	0	0	1	3.586182909405397E+002	-5.3502077E-001	-5.3523177E-001	-4.787504990493074E-003	2.000000000000000E+000	-3.0556232E-005	2.5624247E-006
2	1	0	0	1	3.586515909396985E+002	-5.3168648E-001	-5.3190601E-001	-4.695460824166539E-003	2.000000000000000E+000	-3.0712308E-005	2.4975438E-006
2	1	0	1	1	3.586849909388548E+002	-5.2834773E-001	-5.2855659E-001	-4.602930909610149E-003	2.000000000000000E+000	-3.0865813E-005	2.4329095E-006
2	1	0	1	1	3.587181909380161E+002	-5.2502894E-001	-5.2525765E-001	-4.513439639612669E-003	2.000000000000000E+000	-3.1015334E-005	2.3707187E-006
2	1	0	0	1	3.587515909371723E+002	-5.2169031E-001	-5.2191049E-001	-4.429067126124973E-003	2.000000000000000E+000	-3.1162839E-005	2.3115765E-006
2	1	0	1	1	3.587849909363285E+002	-5.1835150E-001	-5.1856679E-001	-4.342684583346093E-003	2.000000000000000E+000	-3.1307511E-005	2.2519721E-006
2	1	0	1	1	3.588181909354898E+002	-5.1502615E-001	-5.1524347E-001	-4.263496322474331E-003	2.000000000000000E+000	-3.1448559E-005	2.1967387E-006
2	1	0	0	1	3.588515909346461E+002	-5.1168740E-001	-5.1192075E-001	-4.182694256472774E-003	2.000000000000000E+000	-3.1587802E-005	2.1412079E-006
2	1	0	0	1	3.588847909338074E+002	-5.0836867E-001	-5.0858516E-001	-4.103315939616915E-003	2.000000000000000E+000	-3.1723524E-005	2.0868856E-006
2	1	0	1	1	3.589181909329636E+002	-5.0502992E-001	-5.0524640E-001	-4.029078899572292E-003	2.000000000000000E+000	-3.1857518E-005	2.0356777E-006
2	1	0	0	1	3.589515909321199E+002	-5.0169122E-001	-5.0191140E-001	-3.953253302207908E-003	2.000000000000000E+000	-3.1989020E-005	1.9841830E-006
2	1	0	0	1	3.589847909312812E+002	-4.9836579E-001	-4.9857801E-001	-3.879360207712238E-003	2.000000000000000E+000	-3.2117245E-005	1.9341637E-006
2	1	0	1	1	3.590181909304374E+002	-4.9502707E-001	-4.9523774E-001	-3.810254593823888E-003	2.000000000000000E+000	-3.2243817E-005	1.8869819E-006
2	1	0	1	1	3.590513909295987E+002	-4.9170834E-001	-4.9192399E-001	-3.738969471170861E-003	2.000000000000000E+000	-3.2367312E-005	1.8392888E-006
2	1	0	0	1	3.590847909287550E+002	-4.8836961E-001	-4.8860502E-001	-3.672066976508119E-003	2.000000000000000E+000	-3.2489250E-005	1.7941903E-006
2	1	0	1	1	3.591181909279112E+002	-4.8503092E-001	-4.8526388E-001	-3.602487619570660E-003	2.000000000000000E+000	-3.2608943E-005	1.7481572E-006
2	1	0	1	1	3.591513909270725E+002	-4.8170772E-001	-4.8192036E-001	-3.537638917914594E-003	2.000000000000000E+000	-3.2725671E-005	1.7048602E-006
2	1	0	0	1	3.591847909262287E+002	-4.7836679E-001	-4.7859678E-001	-3.471814918900938E-003	2.000000000000000E+000	-3.2840944E-005	1.6615994E-006
2	1	0	0	1	3.592179909253900E+002	-4.7504804E-001	-4.7524720E-001	-3.408422162767100E-003	2.000000000000000E+000	-3.2953343E-005	1.6198431E-006
2	1	0	1	1	3.592513909245463E+002	-4.7170931E-001	-4.7193104E-001	-3.348019571880009E-003	2.000000000000000E+000	-3.3064356E-005	1.5800343E-006
2	1	0	0	1	3.592847909237025E+002	-4.6837056E-001	-4.6858871E-001	-3.282641646510459E-003	2.000000000000000E+000	-3.3173266E-005	1.5382088E-006
2	1	0	0	1	3.593179909228638E+002	-4.6504962E-001	-4.6524903E-001	-3.222149361897256E-003	2.000000000000000E+000	-3.3279463E-005	1.4991019E-006
2	1	0	1	1	3.593513909220201E+002	-4.6170646E-001	-4.6190956E-001	-3.163454008932226E-003	2.000000000000000E+000	-3.3384309E-005	1.4612297E-006
2	1	0	1	1	3.593845909211814E+002	-4.5838773E-001	-4.5857000E-001	-3.103021660494108E-003	2.000000000000000E+000	-3.3486565E-005	1.4229527E-006
2	1	0	0	1	3.594179909203376E+002	-4.5504901E-001	-4.5521817E-001	-3.045953635904611E-003	2.000000000000000E+000	-3.3587454E-005	1.3865734E-006
2	1	0	1	1	3.594513909194939E+002	-4.5171028E-001	-4.5188686E-001	-2.988867782772082E-003	2.000000000000000E+000	-3.3686454E-005	1.3506301E-006
2	1	0	1	1	3.594845909186552E+002	-4.4839150E-001	-4.4858778E-001	-2.933753638014118E-003	2.000000000000000E+000	-3.3782970E-005	1.3160460E-006
2	1	0	0	1	3.595179909178114E+002	-4.4504613E-001	-4.4523951E-001	-2.877907037338312E-003	2.000000000000000E+000	-3.3878223E-005	1.2813580E-006
2	1	0	0	1	3.595511909169727E+002	-4.4172740E-001	-4.4194588E-001	-2.822267998212565E-003	2.000000000000000E+000	-3.3971071E-005	1.2472897E-006
2	1	0	1	1	3.595845909161289E+002	-4.3838865E-001	-4.3859303E-001	-2.766984238734452E-003	2.000000000000000E+000	-3.4062639E-005	1.2135800E-006
2	1	0	0	1	3.596179909152852E+002	-4.3504992E-001	-4.3524337E-001	-2.713924147349285E-003	2.000000000000000E+000	-3.4152385E-005	1.1812175E-006
2	1	0	0	1	3.596511909144465E+002	-4.3173119E-001	-4.3192151E-001	-2.662841975640429E-003	2.000000000000000E+000	-3.4239842E-005	1.1501387E-006
2	1	0	1	1	3.596845909136027E+002	-4.2838803E-001	-4.2859560E-001	-2.609247527024870E-003	2.000000000000000E+000	-3.4326087E-005	1.1183121E-006
2	1	0	1	1	3.597177909127640E+002	-4.2506710E-001	-4.2528504E-001	-2.559200171979483E-003	2.000000000000000E+000	-3.4410103E-005	1.0883896E-006
2	1	0	0	1	3.597511909119203E+002	-4.2172834E-001	-4.2195114E-001	-2.507072297960766E-003	2.000000000000000E+000	-3.4492921E-005	1.0578621E-006
2	1	0	1	1	3.597845909110765E+002	-4.1838965E-001	-4.1860887E-001	-2.458061406715499E-003	2.000000000000000E+000	-3.4574059E-005	1.0289663E-006
2	1	0	1	1	3.598177909102378E+002	-4.1507089E-001	-4.1530514E-001	-2.407371183896140E-003	2.000000000000000E+000	-3.4653032E-005	9.9979366E-007
2	1	0	0	1	3.598511909093941E+002	-4.1172993E-001	-4.1195503E-001	-2.358165892715251E-003	2.000000000000000E+000	-3.4730831E-005	9.7145835E-007
2	1	0	0	1	3.598843909085554E+002	-4.0840676E-001	-4.0862465E-001	-2.310841445416587E-003	2.000000000000000E+000	-3.4806551E-005	9.4426679E-007
2	1	0	1	1	3.599177909077116E+002	-4.0506804E-001	-4.0527833E-001	-2.262319289724549E-003	2.000000000000000E+000	-3.4881159E-005	9.1686900E-007
2	1	0	0	1	3.599511909068679E+002	-4.0172932E-001	-4.0195075E-001	-2.214529614152368E-003	2.000000000000000E+000	-3.4954177E-005	8.9013184E-007
2	1	0	0	1	3.599843909060291E+002	-3.9841056E-001	-3.9862934E-001	-2.171020206676779E-003	2.000000000000000E+000	-3.5025194E-005	8.6543236E-007
2	1	0	1	1	3.600177909051854E+002	-3.9506963E-001	-3.9529440E-001	-2.122956265895343E-003	2.000000000000000E+000	-3.5095094E-005	8.3919269E-007
2	1	0	1	1	3.600509909043467E+002	-3.9174646E-001	-3.9197898E-001	-2.077237601409203E-003	2.000000000000000E+000	-3.5163041E-005	8.1423349E-007
2	1	0	0	1	3.600843909035029E+002	-3.8840771E-001	-3.8862857E-001	-2.032763791996529E-003	2.000000000000000E+000	-3.5229885E-005	7.8999011E-007
2	1	0	1	1	3.601177909026592E+002	-3.8506895E-001	-3.8529089E-001	-1.988704314547551E-003	2.000000000000000E+000	-3.5295277E-005	7.6622968E-007
2	1	0	1	1	3.601509909018205E+002	-3.8175026E-001	-3.8196677E-001	-1.943331787077586E-003	2.000000000000000E+000	-3.5358753E-005	7.4228814E-007
2	1	0	0	1	3.601843909009767E+002	-3.7841156E-001	-3.7860516E-001	-1.900952317559538E-003	2.000000000000000E+000	-3.5421173E-005	7.1971033E-007
2	1	0	0	1	3.602175909001380E+002	-3.7508616E-001	-3.7528965E-001	-1.857048156067588E-003	2.000000000000000E+000	-3.5481786E-005	6.9693095E-007
2	1	0	1	1	3.602509908992943E+002	-3.7174740E-001	-3.7194696E-001	-1.816435666780167E-003	2.000000000000000E+000	-3.5541350E-005	6.7561774E-007
2	1	0	0	1	3.602843908984505E+002	-3.6840868E-001	-3.6859226E-001	-1.773759839496859E-003	2.000000000000000E+000	-3.5599529E-005	6.5379413E-007
2	1	0	0	1	3.603175908976118E+002	-3.6508992E-001	-3.6529139E-001	-1.734747070570138E-003	2.000000000000000E+000	-3.5656009E-005	6.3368816E-007
2	1	0	1	1	3.603509908967681E+002	-3.6175120E-001	-3.6195439E-001	-1.694815855056129E-003	2.000000000000000E+000	-3.5711499E-005	6.1344605E-007
2	1	0	0	1	3.603842908959268E+002	-3.5841691E-001	-3.5864404E-001	-1.653435051270476E-003	2.000000000000000E+000	-3.5765475E-005	5.9299464E-007
2	1	0	0	1	3.604175908950856E+002	-3.5508710E-001	-3.5531700E-001	-1.614557415919579E-003	2.000000000000000E+000	-3.5818102E-005	5.7367970E-007
2	1	0	1	1	3.604509908942418E+002	-3.5174835E-001	-3.5196531E-001	-1.574878321962719E-003	2.000000000000000E+000	-3.5869623E-005	5.5430252E-007
2	1	0	1	1	3.604841908934031E+002	-3.4842965E-001	-3.4864548E-001	-1.535588236061078E-003	2.000000000000000E+000	-3.5919493E-005	5.3537588E-007
2	1	0	0	1	3.605175908925594E+002	-3.4509093E-001	-3.4532055E-001	-1.499159071177862E-003	2.000000000000000E+000	-3.5968413E-005	5.1769047E-007
2	1	0	1	1	3.605508908917182E+002	-3.4175882E-001	-3.4198692E-001	-1.462089084519606E-003	2.000000000000000E+000	-3.6015957E-005	5.0001535E-007
2	1	0	1	1	3.605841908908769E+002	-3.3842677E-001	-3.3862412E-001	-1.423370757897995E-003	2.000000000000000E+000	-3.6062203E-005	4.8198768E-007
2	1	0	0	1	3.606175908900332E+002	-3.3508804E-001	-3.3526888E-001	-1.388095938341893E-003	2.000000000000000E+000	-3.6107376E-005	4.6538537E-007
2	1	0	0	1	3.606507908891945E+002	-3.3176932E-001	-3.3194697E-001	-1.352305690519719E-003	2.000000000000000E+000	-3.6151094E-005	4.4889379E-007
2	1	0	1	1	3.606841908883507E+002	-3.2843056E-001	-3.2860851E-001	-1.316259430718170E-003	2.000000000000000E+000	-3.6193869E-005	4.3253405E-007
2	1	0	0	1	3.607174908875095E+002	-3.2510078E-001	-3.2527769E-001	-1.282023300655633E-003	2.000000000000000E+000	-3.6235368E-005	4.1701358E-007
2	1	0	0	1	3.607507908866683E+002	-3.2176647E-001	-3.2195088E-001	-1.247272944151682E-003	2.000000000000000E+000	-3.6275687E-005	4.0156061E-007
2	1	0	1	1	3.607841908858245E+002	-3.1842777E-001	-3.1861773E-001	-1.214854957385492E-003	2.000000000000000E+000	-3.6315028E-005	3.8707432E-007
2	1	0	1	1	3.608173908849858E+002	-3.1510898E-001	-3.1529033E-001	-1.179875828556429E-003	2.000000000000000E+000	-3.6352987E-005	3.7200346E-007
2	1	0	0	1	3.608507908841420E+002	-3.1177026E-001	-3.1198299E-001	-1.146920473852167E-003	2.000000000000000E+000	-3.6390076E-005	3.5781969E-007
2	1	0	1	1	3.608841908832983E+002	-3.0843157E-001	-3.0860567E-001	-1.113568382910060E-003	2.000000000000000E+000	-3.6426060E-005	3.4365351E-007
2	1	0	1	1	3.609173908824596E+002	-3.0510613E-001	-3.0529484E-001	-1.080584909030693E-003	2.000000000000000E+000	-3.6460722E-005	3.2989701E-007
2	1	0	0	1	3.609507908816158E+002	-3.0176744E-001	-3.0196470E-001	-1.050625835717559E-003	2.000000000000000E+000	-3.6494537E-005	3.1725190E-007
2	1	0	0	1	3.609839908807771E+002	-2.9844871E-001	-2.9862556E-001	-1.018399687174546E-003	2.000000000000000E+000	-3.6527101E-005	3.0412016E-007
2	1	0	1	1	3.610173908799334E+002	-2.9510999E-001	-2.9526615E-001	-9.852161040086026E-004	2.000000000000000E+000	-3.6558766E-005	2.9090097E-007
2	1	0	0	1	3.610507908790896E+002	-2.9177123E-001	-2.9192728E-001	-9.562795114713167E-004	2.000000000000000E+000	-3.6589423E-005	2.7916408E-007
2	1	0	0	1	3.610839908782509E+002	-2.8844583E-001	-2.8859353E-001	-9.246360871650351E-004	2.000000000000000E+000	-3.6618887E-005	2.6684398E-007
2	1	0	1	1	3.611173908774072E+002	-2.8510708E-001	-2.8526506E-001	-8.952052729296993E-004	2.000000000000000E+000	-3.6647514E-005	2.5537079E-007
2	1	0	1	1	3.611505908765685E+002	-2.8178835E-001	-2.8194374E-001	-8.656024966586708E-004	2.000000000000000E+000	-3.6674966E-005	2.4405119E-007
2	1	0	0	1	3.611839908757247E+002	-2.7844965E-001	-2.7861184E-001	-8.358001657176803E-004	2.000000000000000E+000	-3.6701633E-005	2.3286383E-007
2	1	0	1	1	3.612173908748809E+002	-2.7511093E-001	-2.7528077E-001	-8.083288059168381E-004	2.000000000000000E+000	-3.6727331E-005	2.2251739E-007
2	1	0	1	1	3.612505908740422E+002	-2.7178773E-001	-2.7197683E-001	-7.772323014621566E-004	2.000000000000000E+000	-3.6751913E-005	2.1138918E-007
2	1	0	0	1	3.612839908731985E+002	-2.6844677E-001	-2.6861486E-001	-7.489824616735575E-004	2.000000000000000E+000	-3.6775655E-005	2.0118782E-007
2	1	0	0	1	3.613171908723598E+002	-2.6512805E-001	-2.6530665E-001	-7.210029159061913E-004	2.000000000000000E+000	-3.6798308E-005	1.9128687E-007
2	1	0	1	1	3.613505908715160E+002	-2.6178932E-001	-2.6195982E-001	-6.924409343668607E-004	2.000000000000000E+000	-3.6820158E-005	1.8139170E-007
2	1	0	0	1	3.613839908706723E+002	-2.5845060E-001	-2.5862023E-001	-6.656504806192573E-004	2.000000000000000E+000	-3.6841117E-005	1.7215068E-007
2	1	0	0	1	3.614171908698336E+002	-2.5512967E-001	-2.5531372E-001	-6.390594624624795E-004	2.000000000000000E+000	-3.6861024E-005	1.6316065E-007
2	1	0	1	1	3.614505908689898E+002	-2.5178650E-001	-2.5197354E-001	-6.097320421422046E-004	2.000000000000000E+000	-3.6880127E-005	1.5363634E-007
2	1	0	1	1	3.614837908681511E+002	-2.4846774E-001	-2.4865687E-001	-5.841931262545643E-004	2.000000000000000E+000	-3.6898185E-005	1.4526363E-007
2	1	0	0	1	3.615171908673074E+002	-2.4512900E-001	-2.4529937E-001	-5.561619967361549E-004	2.000000000000000E+000	-3.6915473E-005	1.3642618E-007
2	1	0	1	1	3.615655908660847E+002	-2.4029249E-001	-2.4045834E-001	-5.066559992812662E-004	2.000000000000000E+000	-3.6940099E-005	1.2182966E-007
2	1	0	1	1	3.616137908648670E+002	-2.3546603E-001	-2.3559894E-001	-4.392966324963648E-004	2.000000000000000E+000	-3.6963313E-005	1.0349782E-007
2	1	0	0	1	3.616471908640233E+002	-2.3212731E-001	-2.3228130E-001	-4.140493370033693E-004	2.000000000000000E+000	-3.6977181E-005	9.6175917E-008
2	1	0	0	1	3.616803908631846E+002	-2.2880858E-001	-2.2896418E-001	-3.870634623652017E-004	2.000000000000000E+000	-3.6990092E-005	8.8623665E-008
2	1	0	1	1	3.617137908623408E+002	-2.2546986E-001	-2.2560774E-001	-3.604291246261321E-004	2.000000000000000E+000	-3.7002155E-005	8.1315598E-008
2	1	0	0	1	3.617471908614971E+002	-2.2213112E-001	-2.2227003E-001	-3.327402280390544E-004	2.000000000000000E+000	-3.7013346E-005	7.3958176E-008
2	1	0	0	1	3.617803908606584E+002	-2.1880794E-001	-2.1896029E-001	-3.071219490219058E-004	2.000000000000000E+000	-3.7023576E-005	6.7247512E-008
2	1	0	1	1	3.618137908598146E+002	-2.1546696E-001	-2.1560888E-001	-2.812158220169498E-004	2.000000000000000E+000	-3.7033024E-005	6.0632630E-008
2	1	0	1	1	3.618469908589759E+002	-2.1214825E-001	-2.1229927E-001	-2.537178170705025E-004	2.000000000000000E+000	-3.7041504E-005	5.3864110E-008
2	1	0	0	1	3.618803908581322E+002	-2.0880952E-001	-2.0891541E-001	-2.276429856606732E-004	2.000000000000000E+000	-3.7049118E-005	4.7558128E-008
2	1	0	1	1	3.619137908572884E+002	-2.0547080E-001	-2.0560677E-001	-2.024667325447268E-004	2.000000000000000E+000	-3.7055914E-005	4.1628532E-008
2	1	0	1	1	3.619469908564497E+002	-2.0214762E-001	-2.0226790E-001	-1.740260145137039E-004	2.000000000000000E+000	-3.7061771E-005	3.5199875E-008
2	1	0	0	1	3.619803908556059E+002	-1.9880667E-001	-1.9892141E-001	-1.480894643726876E-004	2.000000000000000E+000	-3.7066755E-005	2.9458166E-008
2	1	0	0	1	3.620135908547672E+002	-1.9548793E-001	-1.9560802E-001	-1.228277815031710E-004	2.000000000000000E+000	-3.7070855E-005	2.4026098E-008
2	1	0	1	1	3.620469908539235E+002	-1.9214919E-001	-1.9225997E-001	-9.509578020815406E-005	2.000000000000000E+000	-3.7074085E-005	1.8283112E-008
2	1	0	0	1	3.620803908530797E+002	-1.8881047E-001	-1.8894020E-001	-6.822322092805039E-005	2.000000000000000E+000	-3.7076439E-005	1.2890109E-008
2	1	0	0	1	3.621135908522410E+002	-1.8548952E-001	-1.8562102E-001	-4.101415406400583E-005	2.000000000000000E+000	-3.7077847E-005	7.6130888E-009
2	1	0	1	1	3.621469908513973E+002	-1.8214636E-001	-1.8227674E-001	-1.381999343768328E-005	2.000000000000000E+000	-3.7078371E-005	2.5190634E-009
2	1	0	1	1	3.621801908505586E+002	-1.7882763E-001	-1.7894937E-001	1.452001244633424E-005	2.000000000000000E+000	-3.7077960E-005	2.5983471E-009
2	1	0	0	1	3.622135908497148E+002	-1.7548890E-001	-1.7560096E-001	4.079009539264307E-005	2.000000000000000E+000	-3.7076632E-005	7.1627801E-009
2	1	0	1	1	3.622469908488711E+002	-1.7215016E-001	-1.7228433E-001	6.928593544705151E-005	2.000000000000000E+000	-3.7074406E-005	1.1936882E-008
2	1	0	1	1	3.622801908480324E+002	-1.6883144E-001	-1.6896753E-001	9.710652055858779E-005	2.000000000000000E+000	-3.7071248E-005	1.6407849E-008
2	1	0	0	1	3.623135908471886E+002	-1.6548602E-001	-1.6560631E-001	1.253100211813404E-004	2.000000000000000E+000	-3.7067133E-005	2.0752129E-008
2	1	0	0	1	3.623467908463499E+002	-1.6216730E-001	-1.6228217E-001	1.525176125482244E-004	2.000000000000000E+000	-3.7062131E-005	2.4750889E-008
2	1	0	1	1	3.623801908455061E+002	-1.5882857E-001	-1.5892592E-001	1.808773103985674E-004	2.000000000000000E+000	-3.7056139E-005	2.8746094E-008
2	1	0	0	1	3.624135908446624E+002	-1.5548985E-001	-1.5557331E-001	2.089100023170397E-004	2.000000000000000E+000	-3.7049238E-005	3.2500822E-008
2	1	0	0	1	3.624467908438237E+002	-1.5217111E-001	-1.5227401E-001	2.352578433877804E-004	2.000000000000000E+000	-3.7041471E-005	3.5823657E-008
2	1	0	1	1	3.624801908429799E+002	-1.4882794E-001	-1.4892685E-001	2.631522103160101E-004	2.000000000000000E+000	-3.7032740E-005	3.9190432E-008
2	1	0	1	1	3.625133908421412E+002	-1.4550699E-001	-1.4562054E-001	2.910729689335355E-004	2.000000000000000E+000	-3.7023150E-005	4.2386201E-008
2	1	0	0	1	3.625467908412975E+002	-1.4216825E-001	-1.4228213E-001	3.177825941235862E-004	2.000000000000000E+000	-3.7012571E-005	4.5214783E-008
2	1	0	1	1	3.625801908404537E+002	-1.3882953E-001	-1.3894084E-001	3.446286156112272E-004	2.000000000000000E+000	-3.7001104E-005	4.7882988E-008
2	1	0	1	1	3.626133908396150E+002	-1.3551079E-001	-1.3561021E-001	3.736604207693374E-004	2.000000000000000E+000	-3.6988771E-005	5.0672167E-008
2	1	0	0	1	3.626467908387713E+002	-1.3216986E-001	-1.3226281E-001	4.002474647273246E-004	2.000000000000000E+000	-3.6975456E-005	5.2937853E-008
2	1	0	0	1	3.626799908379326E+002	-1.2884668E-001	-1.2893744E-001	4.288003558084947E-004	2.000000000000000E+000	-3.6961301E-005	5.5288421E-008
2	1	0	1	1	3.627133908370888E+002	-1.2550794E-001	-1.2558469E-001	4.561050862914159E-004	2.000000000000000E+000	-3.6946123E-005	5.7279816E-008
2	1	0	0	1	3.627467908362451E+002	-1.2216921E-001	-1.2222397E-001	4.821279832490470E-004	2.000000000000000E+000	-3.6930047E-005	5.8927597E-008
2	1	0	0	1	3.627799908354064E+002	-1.1885047E-001	-1.1892913E-001	5.100962895752056E-004	2.000000000000000E+000	-3.6913170E-005	6.0665307E-008
2	1	0	1	1	3.628133908345626E+002	-1.1551175E-001	-1.1558485E-001	5.388773399169662E-004	2.000000000000000E+000	-3.6895242E-005	6.2286055E-008
2	1	0	1	1	3.628465908337239E+002	-1.1218635E-001	-1.1223301E-001	5.655517620713601E-004	2.000000000000000E+000	-3.6876514E-005	6.3473571E-008
2	1	0	0	1	3.628799908328801E+002	-1.0884763E-001	-1.0892213E-001	5.928158001761064E-004	2.000000000000000E+000	-3.6856774E-005	6.4570763E-008
2	1	0	1	1	3.629133908320364E+002	-1.0550890E-001	-1.0556704E-001	6.178197004784881E-004	2.000000000000000E+000	-3.6836158E-005	6.5221393E-008
2	1	0	1	1	3.629465908311977E+002	-1.0219017E-001	-1.0226694E-001	6.475943928307970E-004	2.000000000000000E+000	-3.6814745E-005	6.6227493E-008
2	1	0	0	1	3.629799908303539E+002	-9.8851427E-002	-9.8936394E-002	6.725957239015947E-004	2.000000000000000E+000	-3.6792288E-005	6.6544196E-008
2	1	0	0	1	3.630131908295152E+002	-9.5526025E-002	-9.5602043E-002	7.008202044946499E-004	2.000000000000000E+000	-3.6769077E-005	6.6999846E-008
2	1	0	1	1	3.630465908286715E+002	-9.2187300E-002	-9.2253238E-002	7.275697327632892E-004	2.000000000000000E+000	-3.6744801E-005	6.7120666E-008
2	1	0	0	1	3.630799908278277E+002	-8.8848583E-002	-8.8929050E-002	7.523701937679986E-004	2.000000000000000E+000	-3.6719681E-005	6.6907567E-008
2	1	0	0	1	3.631131908269890E+002	-8.5529841E-002	-8.5614495E-002	7.800403297248213E-004	2.000000000000000E+000	-3.6693855E-005	6.6782761E-008
2	1	0	1	1	3.631465908261453E+002	-8.2191125E-002	-8.2273558E-002	8.052193845395298E-004	2.000000000000000E+000	-3.6667003E-005	6.6248262E-008
2	1	0	0	1	3.631798908253040E+002	-7.8856826E-002	-7.8933239E-002	8.290660609267843E-004	2.000000000000000E+000	-3.6639394E-005	6.5440872E-008
2	1	0	0	1	3.632131908244628E+002	-7.5526997E-002	-7.5620122E-002	8.532157813425766E-004	2.000000000000000E+000	-3.6610982E-005	6.4520279E-008
2	1	0	1	1	3.632465908236190E+002	-7.2188266E-002	-7.2253987E-002	8.784811480196655E-004	2.000000000000000E+000	-3.6581674E-005	6.3473763E-008
2	1	0	1	1	3.632797908227803E+002	-6.8869531E-002	-6.8922870E-002	8.986302437403607E-004	2.000000000000000E+000	-3.6551777E-005	6.1936177E-008
2	1	0	0	1	3.633131908219366E+002	-6.5530807E-002	-6.5586619E-002	9.199047602076633E-004	2.000000000000000E+000	-3.6521011E-005	6.0333441E-008
2	1	0	1	1	3.633464908210954E+002	-6.2198736E-002	-6.2255330E-002	9.394232418522188E-004	2.000000000000000E+000	-3.6489662E-005	5.8484105E-008
2	1	0	1	1	3.633797908202541E+002	-5.8866680E-002	-5.8922488E-002	9.593846872572934E-004	2.000000000000000E+000	-3.6457648E-005	5.6529334E-008
2	1	0	0	1	3.634131908194104E+002	-5.5527948E-002	-5.5577129E-002	9.766653120594285E-004	2.000000000000000E+000	-3.6424943E-005	5.4280253E-008
2	1	0	0	1	3.634630908181498E+002	-5.0539669E-002	-5.0660048E-002	9.733085323048642E-004	2.000000000000000E+000	-3.6374429E-005	4.9307857E-008
2	1	0	0	1	3.635130908168867E+002	-4.5540657E-002	-4.5679405E-002	9.853559614621463E-004	2.000000000000000E+000	-3.6322970E-005	4.5010474E-008
2	1	0	0	1	3.635463908160455E+002	-4.2206358E-002	-4.2321827E-002	1.001204121282541E-003	2.000000000000000E+000	-3.6288155E-005	4.2372786E-008
2	1	0	1	1	3.635797908152017E+002	-3.8867634E-002	-3.8974870E-002	1.013367309502362E-003	2.000000000000000E+000	-3.6252783E-005	3.9495859E-008
2	1	0	1	1	3.636129908143630E+002	-3.5548899E-002	-3.5653539E-002	1.024094625571266E-003	2.000000000000000E+000	-3.6217225E-005	3.6512599E-008
2	1	0	0	1	3.636463908135192E+002	-3.2210171E-002	-3.2320954E-002	1.034103825193063E-003	2.000000000000000E+000	-3.6181133E-005	3.3423223E-008
2	1	0	1	1	3.636797908126755E+002	-2.8871443E-002	-2.8980194E-002	1.044575733028109E-003	2.000000000000000E+000	-3.6144706E-005	3.0272005E-008
2	1	0	1	1	3.637129908118368E+002	-2.5546046E-002	-2.5654944E-002	1.050919170077208E-003	2.000000000000000E+000	-3.6108202E-005	2.6961272E-008
2	1	0	0	1	3.637463908109930E+002	-2.2207318E-002	-2.2306031E-002	1.058025493045902E-003	2.000000000000000E+000	-3.6071255E-005	2.3600348E-008
2	1	0	0	1	3.637795908101543E+002	-1.8888582E-002	-1.9004133E-002	1.061981438801415E-003	2.000000000000000E+000	-3.6034315E-005	2.0182036E-008
2	1	0	1	1	3.638129908093106E+002	-1.5549854E-002	-1.5659641E-002	1.068008805253798E-003	2.000000000000000E+000	-3.5997000E-005	1.6724634E-008
2	1	0	0	1	3.638463908084668E+002	-1.2211128E-002	-1.2349898E-002	1.072452225760370E-003	2.000000000000000E+000	-3.5959529E-005	1.3244676E-008
2	1	0	0	1	3.638795908076281E+002	-8.8857282E-003	-9.0038441E-003	1.076536727811839E-003	2.000000000000000E+000	-3.5922123E-005	9.6929691E-009
2	1	0	1	1	3.639129908067844E+002	-5.5470006E-003	-5.6767277E-003	1.078222305245789E-003	2.000000000000000E+000	-3.5884404E-005	6.1207746E-009
2	1	0	1	1	3.639461908059457E+002	-2.2282656E-003	-2.3604590E-003	1.080246054008494E-003	2.000000000000000E+000	-3.5846853E-005	2.5498765E-009
2	1	0	0	1	3.639795908051019E+002	1.1227286E-003	9.9692645E-004	1.082209918214956E-003	2.000000000000000E+000	-3.5809004E-005	1.0788836E-009
2	1	0	1	1	3.640129908042582E+002	4.4491864E-003	4.3493891E-003	1.083288515717998E-003	2.000000000000000E+000	-3.5771107E-005	4.7116431E-009
2	1	0	1	1	3.640461908034194E+002	7.7723637E-003	7.6766317E-003	1.081896792148419E-003	2.000000000000000E+000	-3.5733439E-005	8.3053235E-009
2	1	0	0	1	3.640795908025757E+002	1.1113309E-002	1.1034779E-002	1.081448285448359E-003	2.000000000000000E+000	-3.5695575E-005	1.1933543E-008
2	1	0	0	1	3.641127908017370E+002	1.4432044E-002	1.4363142E-002	1.080536067839371E-003	2.000000000000000E+000	-3.5657929E-005	1.5519893E-008
2	1	0	1	1	3.641461908008932E+002	1.7770771E-002	1.7677614E-002	1.079615560749387E-003	2.000000000000000E+000	-3.5620113E-005	1.9085027E-008
2	1	0	0	1	3.641795908000495E+002	2.1109493E-002	2.1016533E-002	1.077101241032698E-003	2.000000000000000E+000	-3.5582369E-005	2.2636934E-008
2	1	0	0	1	3.642127907992108E+002	2.4430448E-002	2.4321711E-002	1.077158721568091E-003	2.000000000000000E+000	-3.5544908E-005	2.6198343E-008
2	1	0	1	1	3.642461907983670E+002	2.7773621E-002	2.7671169E-002	1.074947480581744E-003	2.000000000000000E+000	-3.5507255E-005	2.9745054E-008
2	1	0	1	1	3.642793907975283E+002	3.1092353E-002	3.0990224E-002	1.072231451770577E-003	2.000000000000000E+000	-3.5469900E-005	3.3228694E-008
2	1	0	0	1	3.643127907966846E+002	3.4431078E-002	3.4345280E-002	1.070968635436591E-003	2.000000000000000E+000	-3.5432393E-005	3.6782719E-008
2	1	0	1	1	3.643461907958408E+002	3.7769806E-002	3.7684564E-002	1.067490409497824E-003	2.000000000000000E+000	-3.5394947E-005	4.0227910E-008
2	1	0	1	1	3.643793907950021E+002	4.1088536E-002	4.0985186E-002	1.065099123451443E-003	2.000000000000000E+000	-3.5357818E-005	4.3653284E-008
2	1	0	0	1	3.644127907941584E+002	4.4433925E-002	4.4354454E-002	1.063789975222020E-003	2.000000000000000E+000	-3.5320511E-005	4.7183825E-008
2	1	0	0	1	3.644459907933197E+002	4.7752660E-002	4.7679268E-002	1.061691966249237E-003	2.000000000000000E+000	-3.5283498E-005	5.0620695E-008
2	1	0	1	1	3.644793907924759E+002	5.1091384E-002	5.1018782E-002	1.059862696158773E-003	2.000000000000000E+000	-3.5246365E-005	5.4072903E-008
2	1	0	0	1	3.645127907916321E+002	5.4430109E-002	5.4359943E-002	1.055744944739372E-003	2.000000000000000E+000	-3.5209316E-005	5.7390235E-008
2	1	0	0	1	3.645459907907934E+002	5.7748843E-002	5.7691522E-002	1.054612679039968E-003	2.000000000000000E+000	-3.5172550E-005	6.0842211E-008
2	1	0	1	1	3.645793907899497E+002	6.1092008E-002	6.1023381E-002	1.051573537937388E-003	2.000000000000000E+000	-3.5135658E-005	6.4170571E-008
2	1	0	1	1	3.646125907891110E+002	6.4412966E-002	6.4339846E-002	1.048610710306631E-003	2.000000000000000E+000	-3.5099059E-005	6.7467454E-008
2	1	0	0	1	3.646459907882672E+002	6.7751691E-002	6.7668810E-002	1.048266456549485E-003	2.000000000000000E+000	-3.5062323E-005	7.0934945E-008
2	1	0	1	1	3.646793907874235E+002	7.1090423E-002	7.1011201E-002	1.045373187555897E-003	2.000000000000000E+000	-3.5025638E-005	7.4233206E-008
2	1	0	1	1	3.647125907865848E+002	7.4409150E-002	7.4311420E-002	1.044470696184297E-003	2.000000000000000E+000	-3.4989236E-005	7.7616100E-008
2	1	0	0	1	3.647459907857410E+002	7.7750102E-002	7.7657029E-002	1.043869829933368E-003	2.000000000000000E+000	-3.4952656E-005	8.1063831E-008
2	1	0	0	1	3.647791907849023E+002	8.1073277E-002	8.0966763E-002	1.040110473074526E-003	2.000000000000000E+000	-3.4916346E-005	8.4214378E-008
2	1	0	1	1	3.648125907840586E+002	8.4412001E-002	8.4305800E-002	1.039182467874423E-003	2.000000000000000E+000	-3.4879886E-005	8.7609109E-008
2	1	0	0	1	3.648459907832148E+002	8.7750733E-002	8.7634765E-002	1.038755319420524E-003	2.000000000000000E+000	-3.4843484E-005	9.1031076E-008
2	1	0	0	1	3.648791907823761E+002	9.1069467E-002	9.0984032E-002	1.037114637832994E-003	2.000000000000000E+000	-3.4807323E-005	9.4360871E-008
2	1	0	1	1	3.649125907815323E+002	9.4410405E-002	9.4303362E-002	1.037219841770517E-003	2.000000000000000E+000	-3.4770957E-005	9.7813320E-008
2	1	0	1	1	3.649457907806936E+002	9.7733594E-002	9.7639762E-002	1.036874151546659E-003	2.000000000000000E+000	-3.4734800E-005	1.0124015E-007
2	1	0	0	1	3.649641907802288E+002	9.9572904E-002	9.9448316E-002	1.036379486322403E-003	2.000000000000000E+000	-3.4714780E-005	1.0306619E-007
2	0	0	1	1	3.649679907801328E+002	9.9906117E-002	9.9814594E-002	1.028161495923996E-003	2.000000000000000E+000	-3.4710702E-005	1.0262552E-007
2	0	0	0	1	3.649863907796680E+002	9.8066792E-002	9.7976334E-002	7.856775406455407E-004	2.000000000000000E+000	-3.4696859E-005	7.6977805E-008
2	0	0	0	1	3.650195907788293E+002	9.4743617E-002	9.4633259E-002	6.870418155489853E-004	2.000000000000000E+000	-3.4674249E-005	6.5017005E-008
2	0	0	1	1	3.650529907779855E+002	9.1402672E-002	9.1296010E-002	6.173756032310687E-004	2.000000000000000E+000	-3.4654229E-005	5.6363930E-008
2	0	0	1	1	3.650861907771468E+002	8.8083930E-002	8.7979034E-002	5.557764369391524E-004	2.000000000000000E+000	-3.4636534E-005	4.8896673E-008
2	0	0	0	1	3.651195907763031E+002	8.4745206E-002	8.4650703E-002	5.030428253862572E-004	2.000000000000000E+000	-3.4620633E-005	4.2582929E-008
2	0	0	1	1	3.651695907750400E+002	7.9745017E-002	7.9644680E-002	4.149674922558182E-004	2.000000000000000E+000	-3.4601209E-005	3.3049954E-008
2	0	0	0	1	3.652195907737769E+002	7.4742354E-002	7.4591324E-002	3.155298853232168E-004	2.000000000000000E+000	-3.4584311E-005	2.3535792E-008
2	0	0	0	1	3.652527907729382E+002	7.1423627E-002	7.1252942E-002	2.733677801986948E-004	2.000000000000000E+000	-3.4574958E-005	1.9478259E-008
2	0	0	1	1	3.652861907720944E+002	6.8084896E-002	6.7938358E-002	2.313415385048795E-004	2.000000000000000E+000	-3.4566969E-005	1.5716964E-008
2	0	0	0	1	3.653195907712507E+002	6.4746179E-002	6.4615831E-002	1.921413924120082E-004	2.000000000000000E+000	-3.4560315E-005	1.2415375E-008
2	0	0	0	1	3.653527907704120E+002	6.1425216E-002	6.1281987E-002	1.534197709908637E-004	2.000000000000000E+000	-3.4555003E-005	9.4018686E-009
2	0	0	1	1	3.653861907695682E+002	5.8082052E-002	5.7972904E-002	1.167219463549274E-004	2.000000000000000E+000	-3.4550896E-005	6.7667103E-009
2	0	0	1	1	3.654193907687295E+002	5.4763317E-002	5.4627128E-002	7.994475476615927E-005	2.000000000000000E+000	-3.4548048E-005	4.3671524E-009
2	0	0	0	1	3.654527907678857E+002	5.1424593E-002	5.1264580E-002	4.552894210877215E-005	2.000000000000000E+000	-3.4546385E-005	2.3340221E-009
2	0	0	1	1	3.654861907670420E+002	4.8085868E-002	4.7933720E-002	1.178671956483924E-005	2.000000000000000E+000	-3.4545850E-005	5.6498134E-010
2	0	0	1	1	3.655193907662033E+002	4.4767134E-002	4.4602547E-002	-2.251883113525357E-005	2.000000000000000E+000	-3.4546440E-005	1.0043972E-009
2	0	0	0	1	3.655527907653595E+002	4.1421741E-002	4.1233193E-002	-5.431403601724677E-005	2.000000000000000E+000	-3.4548139E-005	2.2395412E-009
2	0	0	0	1	3.655859907645208E+002	3.8103011E-002	3.7932526E-002	-8.381079825102054E-005	2.000000000000000E+000	-3.4550849E-005	3.1791554E-009
2	0	0	1	1	3.656193907636771E+002	3.4764286E-002	3.4580983E-002	-1.173665811719964E-004	2.000000000000000E+000	-3.4554640E-005	4.0586516E-009
2	0	0	0	1	3.656527907628333E+002	3.1425554E-002	3.1228252E-002	-1.455782815079419E-004	2.000000000000000E+000	-3.4559431E-005	4.5461550E-009
2	0	0	0	1	3.656859907619946E+002	2.8106825E-002	2.7912952E-002	-1.751063834362188E-004	2.000000000000000E+000	-3.4565179E-005	4.8877360E-009
2	0	0	1	1	3.657193907611509E+002	2.4763657E-002	2.4559611E-002	-2.046879442824086E-004	2.000000000000000E+000	-3.4571949E-005	5.0270565E-009
2	0	0	1	1	3.657525907603122E+002	2.1442700E-002	2.1264700E-002	-2.317470151488288E-004	2.000000000000000E+000	-3.4579607E-005	4.9280309E-009
2	0	0	0	1	3.657859907594684E+002	1.8103974E-002	1.7933628E-002	-2.596146512637964E-004	2.000000000000000E+000	-3.4588225E-005	4.6558326E-009
2	0	0	1	1	3.658193907586247E+002	1.4765250E-002	1.4598947E-002	-2.877325145625403E-004	2.000000000000000E+000	-3.4597771E-005	4.2005919E-009
2	0	0	1	1	3.658525907577859E+002	1.1446516E-002	1.1250962E-002	-3.147888607054471E-004	2.000000000000000E+000	-3.4608176E-005	3.5416774E-009
2	0	0	0	1	3.658859907569422E+002	8.1055686E-003	7.9157688E-003	-3.408056366741366E-004	2.000000000000000E+000	-3.4619548E-005	2.6977387E-009
2	0	0	0	1	3.659191907561035E+002	4.7823931E-003	4.5969831E-003	-3.669286898918839E-004	2.000000000000000E+000	-3.4631692E-005	1.6867649E-009
2	0	0	1	1	3.659525907552597E+002	1.4436671E-003	1.2211706E-003	-3.939135444030678E-004	2.000000000000000E+000	-3.4644818E-005	4.8103566E-010
2	0	0	0	1	3.659859907544160E+002	-1.8950592E-003	-2.1198590E-003	-4.172774030970104E-004	2.000000000000000E+000	-3.4658777E-005	8.8456925E-010
2	0	0	0	1	3.660191907535773E+002	-5.2137943E-003	-5.4349061E-003	-4.419134934512313E-004	2.000000000000000E+000	-3.4673449E-005	2.4017583E-009
2	0	0	1	1	3.660525907527335E+002	-8.5525224E-003	-8.7727318E-003	-4.672794299033358E-004	2.000000000000000E+000	-3.4689045E-005	4.0993169E-009
2	0	0	1	1	3.660857907518948E+002	-1.1877921E-002	-1.2105788E-002	-4.908030277598558E-004	2.000000000000000E+000	-3.4705350E-005	5.9415575E-009
2	0	0	0	1	3.661191907510511E+002	-1.5216648E-002	-1.5443678E-002	-5.136054110644840E-004	2.000000000000000E+000	-3.4722550E-005	7.9319564E-009
2	0	0	1	1	3.661525907502073E+002	-1.8555377E-002	-1.8781491E-002	-5.381734316964593E-004	2.000000000000000E+000	-3.4740508E-005	1.0107700E-008
2	0	0	1	1	3.661857907493686E+002	-2.1874109E-002	-2.2080857E-002	-5.599384592736636E-004	2.000000000000000E+000	-3.4759123E-005	1.2363921E-008
2	0	0	0	1	3.662191907485249E+002	-2.5212837E-002	-2.5427865E-002	-5.821893851457906E-004	2.000000000000000E+000	-3.4778623E-005	1.4803833E-008
2	0	0	0	1	3.662523907476862E+002	-2.8538236E-002	-2.8731527E-002	-6.058965005676913E-004	2.000000000000000E+000	-3.4798755E-005	1.7408331E-008
2	0	0	1	1	3.662857907468424E+002	-3.1876963E-002	-3.2099228E-002	-6.283540502422351E-004	2.000000000000000E+000	-3.4819790E-005	2.0169679E-008
2	0	0	0	1	3.663191907459986E+002	-3.5215691E-002	-3.5419475E-002	-6.496059078387982E-004	2.000000000000000E+000	-3.4841523E-005	2.3008701E-008
2	0	0	0	1	3.663523907451599E+002	-3.8534425E-002	-3.8745239E-002	-6.716018018118196E-004	2.000000000000000E+000	-3.4863857E-005	2.6021372E-008
2	0	0	1	1	3.663857907443162E+002	-4.1873153E-002	-4.2108633E-002	-6.939448029583293E-004	2.000000000000000E+000	-3.4887082E-005	2.9221066E-008
2	0	0	0	1	3.664190907434750E+002	-4.5207452E-002	-4.5451395E-002	-7.153300926160729E-004	2.000000000000000E+000	-3.4910943E-005	3.2512752E-008
2	0	0	0	1	3.664523907426337E+002	-4.8537277E-002	-4.8761189E-002	-7.353234700645695E-004	2.000000000000000E+000	-3.4935496E-005	3.5855248E-008
2	0	0	1	1	3.664857907417900E+002	-5.1876012E-002	-5.2117582E-002	-7.578583978789123E-004	2.000000000000000E+000	-3.4960827E-005	3.9497749E-008
2	0	0	1	1	3.665189907409513E+002	-5.5194743E-002	-5.5439413E-002	-7.777731698095335E-004	2.000000000000000E+000	-3.4986719E-005	4.3119286E-008
2	0	0	0	1	3.665523907401075E+002	-5.8533471E-002	-5.8779988E-002	-7.973180356013968E-004	2.000000000000000E+000	-3.5013461E-005	4.6866344E-008
2	0	0	1	1	3.665856907392663E+002	-6.1865531E-002	-6.2114101E-002	-8.177617085606973E-004	2.000000000000000E+000	-3.5040754E-005	5.0794533E-008
2	0	0	1	1	3.666189907384251E+002	-6.5197594E-002	-6.5420546E-002	-8.392623789283487E-004	2.000000000000000E+000	-3.5068755E-005	5.4905001E-008
2	0	0	0	1	3.666523907375813E+002	-6.8536319E-002	-6.8762921E-002	-8.582318077161397E-004	2.000000000000000E+000	-3.5097499E-005	5.9014525E-008
2	0	0	0	1	3.666855907367426E+002	-7.1855053E-002	-7.2089240E-002	-8.794437870879119E-004	2.000000000000000E+000	-3.5126759E-005	6.3398431E-008
2	0	0	1	1	3.667189907358988E+002	-7.5193793E-002	-7.5443186E-002	-8.992730849826745E-004	2.000000000000000E+000	-3.5156871E-005	6.7844027E-008
2	0	0	0	1	3.667522907350576E+002	-7.8523614E-002	-7.8770503E-002	-9.190460088987868E-004	2.000000000000000E+000	-3.5187539E-005	7.2393718E-008
2	0	0	0	1	3.667855907342164E+002	-8.1857912E-002	-8.2106642E-002	-9.392066349971214E-004	2.000000000000000E+000	-3.5218884E-005	7.7115104E-008
2	0	0	1	1	3.668189907333726E+002	-8.5196637E-002	-8.5421935E-002	-9.565826763180173E-004	2.000000000000000E+000	-3.5250941E-005	8.1713146E-008
2	0	0	1	1	3.668521907325339E+002	-8.8515379E-002	-8.8748813E-002	-9.762084006649276E-004	2.000000000000000E+000	-3.5283425E-005	8.6637336E-008
2	0	0	0	1	3.669022907312683E+002	-9.3525387E-002	-9.3698047E-002	-9.759652342880469E-004	2.000000000000000E+000	-3.5334193E-005	9.1446033E-008
2	0	0	1	1	3.669521907300077E+002	-9.8518223E-002	-9.8657370E-002	-9.933012797234738E-004	2.000000000000000E+000	-3.5385747E-005	9.7996491E-008
2	0	0	0	1	3.669855907291640E+002	-1.0185696E-001	-1.0199320E-001	-1.011918182699042E-003	2.000000000000000E+000	-3.5420955E-005	1.0320877E-007
2	0	0	0	1	3.670187907283253E+002	-1.0517569E-001	-1.0530182E-001	-1.030351959439199E-003	2.000000000000000E+000	-3.5456582E-005	1.0849794E-007
2	0	0	1	1	3.670521907274815E+002	-1.0851442E-001	-1.0864536E-001	-1.049039522350301E-003	2.000000000000000E+000	-3.5493049E-005	1.1397328E-007
2	0	0	0	1	3.670855907266377E+002	-1.1185315E-001	-1.1196385E-001	-1.068150869250530E-003	2.000000000000000E+000	-3.5530134E-005	1.1959429E-007
2	0	0	0	1	3.671187907257990E+002	-1.1517856E-001	-1.1531407E-001	-1.088411351227947E-003	2.000000000000000E+000	-3.5567649E-005	1.2550913E-007
2	0	0	1	1	3.671521907249553E+002	-1.1851726E-001	-1.1864920E-001	-1.106137293261579E-003	2.000000000000000E+000	-3.5606023E-005	1.3124230E-007
2	0	0	1	1	3.671853907241166E+002	-1.2183600E-001	-1.2197151E-001	-1.123977042345226E-003	2.000000000000000E+000	-3.5644782E-005	1.3709318E-007
2	0	0	0	1	3.672187907232728E+002	-1.2517473E-001	-1.2530425E-001	-1.145640989414934E-003	2.000000000000000E+000	-3.5684439E-005	1.4355369E-007
2	0	0	1	1	3.672521907224291E+002	-1.2851346E-001	-1.2864943E-001	-1.163425222218423E-003	2.000000000000000E+000	-3.5724726E-005	1.4967399E-007
2	0	0	1	1	3.672853907215904E+002	-1.3183664E-001	-1.3198304E-001	-1.181603148304726E-003	2.000000000000000E+000	-3.5765399E-005	1.5595158E-007
2	0	0	0	1	3.673187907207466E+002	-1.3517760E-001	-1.3531022E-001	-1.200959709686117E-003	2.000000000000000E+000	-3.5806930E-005	1.6250212E-007
2	0	0	0	1	3.673519907199079E+002	-1.3849632E-001	-1.3864543E-001	-1.220851809139953E-003	2.000000000000000E+000	-3.5848901E-005	1.6926552E-007
2	0	0	1	1	3.673853907190642E+002	-1.4183505E-001	-1.4198664E-001	-1.240752054164419E-003	2.000000000000000E+000	-3.5891750E-005	1.7617022E-007
2	0	0	0	1	3.674187907182204E+002	-1.4517377E-001	-1.4531411E-001	-1.261523102358397E-003	2.000000000000000E+000	-3.5935260E-005	1.8331711E-007
2	0	0	0	1	3.674519907173817E+002	-1.4849474E-001	-1.4864370E-001	-1.281091717672230E-003	2.000000000000000E+000	-3.5979199E-005	1.9042622E-007
2	0	0	1	1	3.674853907165380E+002	-1.5183790E-001	-1.5198445E-001	-1.302033112889921E-003	2.000000000000000E+000	-3.6024059E-005	1.9788880E-007
2	0	0	1	1	3.675185907156992E+002	-1.5515664E-001	-1.5528016E-001	-1.322502195800084E-003	2.000000000000000E+000	-3.6069374E-005	2.0535835E-007
2	0	0	0	1	3.675519907148555E+002	-1.5849537E-001	-1.5864007E-001	-1.346455526611492E-003	2.000000000000000E+000	-3.6115682E-005	2.1360181E-007
2	0	0	1	1	3.675853907140117E+002	-1.6183409E-001	-1.6198806E-001	-1.368457063241901E-003	2.000000000000000E+000	-3.6162739E-005	2.2167372E-007
2	0	0	1	1	3.676185907131730E+002	-1.6515283E-001	-1.6530347E-001	-1.389934694229013E-003	2.000000000000000E+000	-3.6210273E-005	2.2976103E-007
2	0	0	0	1	3.676519907123293E+002	-1.6849822E-001	-1.6866361E-001	-1.414475797223359E-003	2.000000000000000E+000	-3.6258840E-005	2.3857058E-007
2	0	0	0	1	3.676851907114906E+002	-1.7181695E-001	-1.7198147E-001	-1.436990987311686E-003	2.000000000000000E+000	-3.6307920E-005	2.4713583E-007
2	0	0	1	1	3.677185907106468E+002	-1.7515567E-001	-1.7530695E-001	-1.461552283775147E-003	2.000000000000000E+000	-3.6358077E-005	2.5622026E-007
2	0	0	0	1	3.677519907098031E+002	-1.7849441E-001	-1.7865582E-001	-1.486609727858367E-003	2.000000000000000E+000	-3.6409056E-005	2.6559147E-007
2	0	0	0	1	3.677851907089644E+002	-1.8181314E-001	-1.8197645E-001	-1.511703766580604E-003	2.000000000000000E+000	-3.6460580E-005	2.7509449E-007
2	0	0	1	1	3.678185907081206E+002	-1.8515633E-001	-1.8532005E-001	-1.537678606341440E-003	2.000000000000000E+000	-3.6513266E-005	2.8496268E-007
2	0	0	1	1	3.678517907072819E+002	-1.8847728E-001	-1.8864664E-001	-1.563608641100235E-003	2.000000000000000E+000	-3.6566504E-005	2.9496951E-007
2	0	0	0	1	3.678851907064382E+002	-1.9181600E-001	-1.9197536E-001	-1.589336137993894E-003	2.000000000000000E+000	-3.6620921E-005	3.0511336E-007
2	0	0	1	1	3.679185907055944E+002	-1.9515471E-001	-1.9531652E-001	-1.616697234025608E-003	2.000000000000000E+000	-3.6676185E-005	3.1576769E-007
2	0	0	1	1	3.679517907047557E+002	-1.9847345E-001	-1.9862539E-001	-1.642865727844764E-003	2.000000000000000E+000	-3.6732032E-005	3.2631485E-007
2	0	0	0	1	3.679851907039119E+002	-2.0181440E-001	-2.0197171E-001	-1.671418877923748E-003	2.000000000000000E+000	-3.6789152E-005	3.3757934E-007
2	0	0	0	1	3.680183907030732E+002	-2.0513760E-001	-2.0530532E-001	-1.698026957784784E-003	2.000000000000000E+000	-3.6846821E-005	3.4861398E-007
2	0	0	1	1	3.680517907022295E+002	-2.0847632E-001	-2.0863484E-001	-1.724768810354702E-003	2.000000000000000E+000	-3.6905716E-005	3.5984687E-007
2	0	0	0	1	3.680851907013857E+002	-2.1181506E-001	-2.1199922E-001	-1.754766900048700E-003	2.000000000000000E+000	-3.6965568E-005	3.7200923E-007
2	0	0	0	1	3.681183907005470E+002	-2.1513379E-001	-2.1532658E-001	-1.781157924350632E-003	2.000000000000000E+000	-3.7026024E-005	3.8353065E-007
2	0	0	1	1	3.681517906997033E+002	-2.1847470E-001	-2.1864925E-001	-1.810170907556304E-003	2.000000000000000E+000	-3.7087764E-005	3.9579251E-007
2	0	0	1	1	3.681849906988646E+002	-2.2179790E-001	-2.2197524E-001	-1.838683004249029E-003	2.000000000000000E+000	-3.7150086E-005	4.0814209E-007
2	0	0	0	1	3.682183906980208E+002	-2.2513662E-001	-2.2531804E-001	-1.867047695621429E-003	2.000000000000000E+000	-3.7213733E-005	4.2067953E-007
2	0	0	1	1	3.682517906971771E+002	-2.2847535E-001	-2.2865523E-001	-1.896964532813097E-003	2.000000000000000E+000	-3.7278329E-005	4.3375087E-007
2	0	0	1	1	3.682849906963384E+002	-2.3179409E-001	-2.3197147E-001	-1.925354102853881E-003	2.000000000000000E+000	-3.7343518E-005	4.4662724E-007
2	0	0	0	1	3.683183906954946E+002	-2.3513281E-001	-2.3529199E-001	-1.954334051473841E-003	2.000000000000000E+000	-3.7410060E-005	4.5983916E-007
2	0	0	0	1	3.683515906946559E+002	-2.3845823E-001	-2.3862682E-001	-1.984740873136891E-003	2.000000000000000E+000	-3.7477206E-005	4.7361240E-007
2	0	0	1	1	3.683849906938121E+002	-2.4179694E-001	-2.4196728E-001	-2.015955303655509E-003	2.000000000000000E+000	-3.7545749E-005	4.8779521E-007
2	0	0	0	1	3.684183906929684E+002	-2.4513566E-001	-2.4531676E-001	-2.045592032235510E-003	2.000000000000000E+000	-3.7615329E-005	5.0181802E-007
2	0	0	0	1	3.684515906921297E+002	-2.4845439E-001	-2.4864186E-001	-2.076648006130000E-003	2.000000000000000E+000	-3.7685521E-005	5.1634163E-007
2	0	0	1	1	3.684849906912859E+002	-2.5179315E-001	-2.5195962E-001	-2.107740876260020E-003	2.000000000000000E+000	-3.7757174E-005	5.3106561E-007
2	0	0	0	1	3.685182906904447E+002	-2.5512743E-001	-2.5529522E-001	-2.138601227697191E-003	2.000000000000000E+000	-3.7829617E-005	5.4597467E-007
2	0	0	0	1	3.685515906896035E+002	-2.5845727E-001	-2.5862366E-001	-2.170866340583654E-003	2.000000000000000E+000	-3.7903115E-005	5.6143739E-007
2	0	0	1	1	3.685849906887597E+002	-2.6179603E-001	-2.6193768E-001	-2.202603903319347E-003	2.000000000000000E+000	-3.7977879E-005	5.7694496E-007
2	0	0	1	1	3.686181906879210E+002	-2.6511472E-001	-2.6529038E-001	-2.236524226054498E-003	2.000000000000000E+000	-3.8053309E-005	5.9332837E-007
2	0	0	0	1	3.686515906870773E+002	-2.6845345E-001	-2.6861483E-001	-2.266723853037406E-003	2.000000000000000E+000	-3.8130271E-005	6.0887567E-007
2	0	0	1	1	3.686848906862360E+002	-2.7178553E-001	-2.7193841E-001	-2.301992922929950E-003	2.000000000000000E+000	-3.8208098E-005	6.2600031E-007
2	0	0	1	1	3.687181906853948E+002	-2.7511758E-001	-2.7527353E-001	-2.335164347058272E-003	2.000000000000000E+000	-3.8287049E-005	6.4280891E-007
2	0	0	0	1	3.687515906845510E+002	-2.7845630E-001	-2.7860853E-001	-2.369912695834905E-003	2.000000000000000E+000	-3.8367350E-005	6.6027792E-007
2	0	0	0	1	3.687847906837123E+002	-2.8177503E-001	-2.8191525E-001	-2.403124869786014E-003	2.000000000000000E+000	-3.8448328E-005	6.7747754E-007
2	0	0	1	1	3.688181906828686E+002	-2.8511375E-001	-2.8525239E-001	-2.439091609881469E-003	2.000000000000000E+000	-3.8530950E-005	6.9575674E-007
2	0	0	0	1	3.688514906820274E+002	-2.8844360E-001	-2.8858218E-001	-2.474736380771496E-003	2.000000000000000E+000	-3.8614508E-005	7.1416480E-007
2	0	0	0	1	3.688847906811861E+002	-2.9177791E-001	-2.9192039E-001	-2.509886879690591E-003	2.000000000000000E+000	-3.8699254E-005	7.3268717E-007
2	0	0	1	1	3.689181906803424E+002	-2.9511663E-001	-2.9525730E-001	-2.545791316607163E-003	2.000000000000000E+000	-3.8785438E-005	7.5166349E-007
2	0	0	1	1	3.689513906795037E+002	-2.9843536E-001	-2.9860422E-001	-2.583381700867358E-003	2.000000000000000E+000	-3.8872371E-005	7.7140868E-007
2	0	0	0	1	3.689847906786599E+002	-3.0177411E-001	-3.0193955E-001	-2.619287284361671E-003	2.000000000000000E+000	-3.8961018E-005	7.9086641E-007
2	0	0	1	1	3.690180906778187E+002	-3.0510390E-001	-3.0527022E-001	-2.658238048256087E-003	2.000000000000000E+000	-3.9050636E-005	8.1148090E-007
2	0	0	1	1	3.690513906769775E+002	-3.0843821E-001	-3.0861503E-001	-2.696633065993576E-003	2.000000000000000E+000	-3.9141563E-005	8.3222147E-007
2	0	0	0	1	3.690847906761337E+002	-3.1177697E-001	-3.1198192E-001	-2.736190643616424E-003	2.000000000000000E+000	-3.9234048E-005	8.5364201E-007
2	0	0	0	1	3.691179906752950E+002	-3.1509569E-001	-3.1527722E-001	-2.774409441621235E-003	2.000000000000000E+000	-3.9327246E-005	8.7470806E-007
2	0	0	1	1	3.691513906744513E+002	-3.1843439E-001	-3.1862485E-001	-2.812324298202933E-003	2.000000000000000E+000	-3.9422310E-005	8.9607641E-007
2	0	0	0	1	3.691847906736075E+002	-3.2177314E-001	-3.2195228E-001	-2.854477544336709E-003	2.000000000000000E+000	-3.9518698E-005	9.1900557E-007
2	0	0	0	1	3.692179906727688E+002	-3.2509851E-001	-3.2527220E-001	-2.895077783695243E-003	2.000000000000000E+000	-3.9615872E-005	9.4168831E-007
2	0	0	1	1	3.692513906719250E+002	-3.2843724E-001	-3.2860655E-001	-2.936237898118414E-003	2.000000000000000E+000	-3.9715014E-005	9.6486701E-007
2	0	0	1	1	3.692845906710863E+002	-3.3175597E-001	-3.3193779E-001	-2.978287056730880E-003	2.000000000000000E+000	-3.9814953E-005	9.8860608E-007
2	0	0	0	1	3.693179906702426E+002	-3.3509472E-001	-3.3527449E-001	-3.019815702454812E-003	2.000000000000000E+000	-3.9916871E-005	1.0124671E-006
2	0	0	1	1	3.693513906693988E+002	-3.3843347E-001	-3.3862281E-001	-3.065609668728590E-003	2.000000000000000E+000	-4.0020233E-005	1.0380853E-006
2	0	0	1	1	3.693845906685601E+002	-3.4175661E-001	-3.4196970E-001	-3.108372282068658E-003	2.000000000000000E+000	-4.0124483E-005	1.0629691E-006
2	0	0	0	1	3.694179906677164E+002	-3.4509757E-001	-3.4530535E-001	-3.151757573990228E-003	2.000000000000000E+000	-4.0230767E-005	1.0883188E-006
2	0	0	0	1	3.694511906668777E+002	-3.4841633E-001	-3.4864071E-001	-3.196455441901433E-003	2.000000000000000E+000	-4.0337898E-005	1.1144145E-006
2	0	0	1	1	3.694845906660339E+002	-3.5175505E-001	-3.5198808E-001	-3.241422643181134E-003	2.000000000000000E+000	-4.0447187E-005	1.1409421E-006
2	0	0	0	1	3.695179906651902E+002	-3.5509375E-001	-3.5531268E-001	-3.287210945402158E-003	2.000000000000000E+000	-4.0557978E-005	1.1679878E-006
2	0	0	0	1	3.695511906643515E+002	-3.5841471E-001	-3.5863522E-001	-3.334540436933625E-003	2.000000000000000E+000	-4.0669645E-005	1.1958837E-006
2	0	0	1	1	3.695845906635077E+002	-3.6175790E-001	-3.6196694E-001	-3.379103750194188E-003	2.000000000000000E+000	-4.0783507E-005	1.2231238E-006
2	0	0	1	1	3.696177906626690E+002	-3.6507663E-001	-3.6528757E-001	-3.427935088688246E-003	2.000000000000000E+000	-4.0898245E-005	1.2521821E-006
2	0	0	0	1	3.696511906618252E+002	-3.6841533E-001	-3.6862010E-001	-3.475046041626384E-003	2.000000000000000E+000	-4.1015282E-005	1.2809718E-006
2	0	0	1	1	3.696845906609815E+002	-3.7175405E-001	-3.7194702E-001	-3.522971942816019E-003	2.000000000000000E+000	-4.1133953E-005	1.3103589E-006
2	0	0	1	1	3.697177906601428E+002	-3.7507281E-001	-3.7526715E-001	-3.572175693989255E-003	2.000000000000000E+000	-4.1253508E-005	1.3405202E-006
2	0	0	0	1	3.697511906592990E+002	-3.7841821E-001	-3.7863189E-001	-3.621035839298417E-003	2.000000000000000E+000	-4.1375410E-005	1.3710396E-006
2	0	0	0	1	3.697843906584603E+002	-3.8173693E-001	-3.8195434E-001	-3.671974011441412E-003	2.000000000000000E+000	-4.1498250E-005	1.4025264E-006
2	0	0	1	1	3.698177906576166E+002	-3.8507566E-001	-3.8530773E-001	-3.723627114156469E-003	2.000000000000000E+000	-4.1623553E-005	1.4347423E-006
2	0	0	0	1	3.698511906567728E+002	-3.8841435E-001	-3.8864729E-001	-3.771175016768720E-003	2.000000000000000E+000	-4.1750489E-005	1.4656570E-006
2	0	0	0	1	3.698843906559341E+002	-3.9173311E-001	-3.9197561E-001	-3.825573696322616E-003	2.000000000000000E+000	-4.1878349E-005	1.4995315E-006
2	0	0	1	1	3.699177906550904E+002	-3.9507627E-001	-3.9532942E-001	-3.878307713398328E-003	2.000000000000000E+000	-4.2008745E-005	1.5332091E-006
2	0	0	1	1	3.699509906542517E+002	-3.9839724E-001	-3.9864641E-001	-3.926319906216412E-003	2.000000000000000E+000	-4.2140040E-005	1.5652133E-006
2	0	0	0	1	3.699843906534079E+002	-4.0173593E-001	-4.0196529E-001	-3.980123027490824E-003	2.000000000000000E+000	-4.2273849E-005	1.5998713E-006
2	0	0	1	1	3.700177906525641E+002	-4.0507472E-001	-4.0531102E-001	-4.031366210870652E-003	2.000000000000000E+000	-4.2409411E-005	1.6339571E-006
2	0	0	1	1	3.700509906517254E+002	-4.0839347E-001	-4.0862063E-001	-4.082400509839698E-003	2.000000000000000E+000	-4.2545846E-005	1.6681530E-006
2	0	0	0	1	3.700843906508817E+002	-4.1173661E-001	-4.1194326E-001	-4.138659897532024E-003	2.000000000000000E+000	-4.2684915E-005	1.7048931E-006
2	0	0	0	1	3.701175906500430E+002	-4.1505754E-001	-4.1529629E-001	-4.189694071500064E-003	2.000000000000000E+000	-4.2824962E-005	1.7399644E-006
2	0	0	1	1	3.701509906491992E+002	-4.1839623E-001	-4.1863194E-001	-4.242901915735009E-003	2.000000000000000E+000	-4.2967586E-005	1.7762143E-006
2	0	0	0	1	3.701843906483555E+002	-4.2173502E-001	-4.2197472E-001	-4.298287212473578E-003	2.000000000000000E+000	-4.3111981E-005	1.8137686E-006
2	0	0	0	1	3.702175906475168E+002	-4.2505375E-001	-4.2528614E-001	-4.350293726003845E-003	2.000000000000000E+000	-4.3257311E-005	1.8501196E-006
2	0	0	1	1	3.702509906466730E+002	-4.2839468E-001	-4.2860535E-001	-4.404097819276132E-003	2.000000000000000E+000	-4.3405278E-005	1.8876199E-006
2	0	0	1	1	3.702841906458343E+002	-4.3171787E-001	-4.3191707E-001	-4.459422067043793E-003	2.000000000000000E+000	-4.3554184E-005	1.9261006E-006
2	0	0	0	1	3.703175906449906E+002	-4.3505666E-001	-4.3527627E-001	-4.512022374482436E-003	2.000000000000000E+000	-4.3705797E-005	1.9639763E-006
2	0	0	1	1	3.703509906441468E+002	-4.3839538E-001	-4.3860823E-001	-4.566027074798959E-003	2.000000000000000E+000	-4.3859200E-005	2.0026971E-006
2	0	0	1	1	3.703841906433081E+002	-4.4171411E-001	-4.4193017E-001	-4.617838893523379E-003	2.000000000000000E+000	-4.4013432E-005	2.0407624E-006
2	0	0	0	1	3.704175906424643E+002	-4.4505277E-001	-4.4525939E-001	-4.673468256832722E-003	2.000000000000000E+000	-4.4170400E-005	2.0809057E-006
2	0	0	0	1	3.704507906416256E+002	-4.4837821E-001	-4.4858244E-001	-4.727136885059595E-003	2.000000000000000E+000	-4.4328244E-005	2.1205105E-006
2	0	0	1	1	3.704841906407819E+002	-4.5171693E-001	-4.5189840E-001	-4.781770976481281E-003	2.000000000000000E+000	-4.4488817E-005	2.1608746E-006
2	0	0	0	1	3.705175906399381E+002	-4.5505565E-001	-4.5524311E-001	-4.837199373394926E-003	2.000000000000000E+000	-4.4651228E-005	2.2021018E-006
2	0	0	0	1	3.705507906390994E+002	-4.5837438E-001	-4.5858252E-001	-4.888797862761390E-003	2.000000000000000E+000	-4.4814475E-005	2.2419172E-006
2	0	0	1	1	3.705841906382557E+002	-4.6171311E-001	-4.6191362E-001	-4.947197160875440E-003	2.000000000000000E+000	-4.4980523E-005	2.2851777E-006
2	0	0	0	1	3.706174906374144E+002	-4.6504742E-001	-4.6523267E-001	-5.000651117266136E-003	2.000000000000000E+000	-4.5147845E-005	2.3264663E-006
2	0	0	0	1	3.706507906365732E+002	-4.6837726E-001	-4.6859571E-001	-5.053502848507668E-003	2.000000000000000E+000	-4.5317000E-005	2.3680498E-006
2	0	0	1	1	3.706841906357295E+002	-4.7171596E-001	-4.7193828E-001	-5.110157205134684E-003	2.000000000000000E+000	-4.5488523E-005	2.4116789E-006
2	0	0	1	1	3.707173906348908E+002	-4.7503471E-001	-4.7525460E-001	-5.162360513231427E-003	2.000000000000000E+000	-4.5660789E-005	2.4534356E-006
2	0	0	0	1	3.707507906340470E+002	-4.7837344E-001	-4.7860438E-001	-5.215966513022530E-003	2.000000000000000E+000	-4.5835895E-005	2.4963845E-006
2	0	0	1	1	3.707840906332058E+002	-4.8170549E-001	-4.8194581E-001	-5.270575110325318E-003	2.000000000000000E+000	-4.6012268E-005	2.5401316E-006
2	0	0	1	1	3.708173906323646E+002	-4.8503754E-001	-4.8524970E-001	-5.323290051094762E-003	2.000000000000000E+000	-4.6190446E-005	2.5831248E-006
2	0	0	0	1	3.708507906315208E+002	-4.8837629E-001	-4.8858467E-001	-5.375519554094099E-003	2.000000000000000E+000	-4.6370897E-005	2.6263965E-006
2	0	0	0	1	3.708839906306821E+002	-4.9169505E-001	-4.9192277E-001	-5.430327260929284E-003	2.000000000000000E+000	-4.6552057E-005	2.6713017E-006
2	0	0	1	1	3.709173906298383E+002	-4.9503377E-001	-4.9525526E-001	-5.486769656234625E-003	2.000000000000000E+000	-4.6736164E-005	2.7173514E-006
2	0	0	0	1	3.709506906289971E+002	-4.9836355E-001	-4.9858925E-001	-5.539676398898741E-003	2.000000000000000E+000	-4.6921537E-005	2.7620231E-006
2	0	0	0	1	3.709839906281559E+002	-5.0169784E-001	-5.0192308E-001	-5.592531688313029E-003	2.000000000000000E+000	-4.7108715E-005	2.8070208E-006
2	0	0	1	1	3.710173906273121E+002	-5.0503659E-001	-5.0526422E-001	-5.649808894937720E-003	2.000000000000000E+000	-4.7298257E-005	2.8546463E-006
2	0	0	1	1	3.710505906264734E+002	-5.0835532E-001	-5.0858557E-001	-5.703914573866709E-003	2.000000000000000E+000	-4.7488506E-005	2.9009286E-006
2	0	0	0	1	3.710839906256297E+002	-5.1169407E-001	-5.1192701E-001	-5.758790940701683E-003	2.000000000000000E+000	-4.7681770E-005	2.9480807E-006
2	0	0	1	1	3.711172906247884E+002	-5.1502389E-001	-5.1526040E-001	-5.814197495951096E-003	2.000000000000000E+000	-4.7876227E-005	2.9958258E-006
2	0	0	1	1	3.711505906239472E+002	-5.1835817E-001	-5.1857442E-001	-5.870171598475665E-003	2.000000000000000E+000	-4.8072568E-005	3.0441208E-006
2	0	0	0	1	3.711839906231035E+002	-5.2169693E-001	-5.2191108E-001	-5.923057439471841E-003	2.000000000000000E+000	-4.8271297E-005	3.0913093E-006
2	0	0	0	1	3.712171906222648E+002	-5.2501565E-001	-5.2525449E-001	-5.981046960654587E-003	2.000000000000000E+000	-4.8470669E-005	3.1415718E-006
2	0	0	1	1	3.712505906214210E+002	-5.2835441E-001	-5.2857101E-001	-6.039246223334488E-003	2.000000000000000E+000	-4.8673144E-005	3.1921704E-006
2	0	0	0	1	3.712839906205772E+002	-5.3169310E-001	-5.3190827E-001	-6.095885697189558E-003	2.000000000000000E+000	-4.8877566E-005	3.2424521E-006
2	0	0	0	1	3.713171906197385E+002	-5.3501850E-001	-5.3523719E-001	-6.155037765360982E-003	2.000000000000000E+000	-4.9082701E-005	3.2944051E-006
2	0	0	1	1	3.713505906188948E+002	-5.3835732E-001	-5.3855765E-001	-6.214258262210665E-003	2.000000000000000E+000	-4.9291051E-005	3.3467363E-006
2	0	0	1	1	3.713837906180561E+002	-5.4167598E-001	-5.4190397E-001	-6.274048803671682E-003	2.000000000000000E+000	-4.9500159E-005	3.3999320E-006
2	0	0	0	1	3.714171906172123E+002	-5.4501474E-001	-5.4522169E-001	-6.335674008350251E-003	2.000000000000000E+000	-4.9712544E-005	3.4543468E-006
2	0	0	1	1	3.714505906163686E+002	-5.4835343E-001	-5.4856008E-001	-6.399624520175458E-003	2.000000000000000E+000	-4.9926981E-005	3.5105786E-006
2	0	0	1	1	3.714837906155299E+002	-5.5167663E-001	-5.5189896E-001	-6.463292096234908E-003	2.000000000000000E+000	-5.0142320E-005	3.5670841E-006
2	0	0	0	1	3.715171906146861E+002	-5.5501753E-001	-5.5526197E-001	-6.529727408509343E-003	2.000000000000000E+000	-5.0361086E-005	3.6257093E-006
2	0	0	0	1	3.715503906138474E+002	-5.5833626E-001	-5.5857182E-001	-6.590281542222423E-003	2.000000000000000E+000	-5.0580660E-005	3.6811455E-006
2	0	0	1	1	3.715837906130037E+002	-5.6167501E-001	-5.6190568E-001	-6.659987010115644E-003	2.000000000000000E+000	-5.0803756E-005	3.7422844E-006
2	0	0	0	1	3.716171906121599E+002	-5.6501371E-001	-5.6524402E-001	-6.730076052330392E-003	2.000000000000000E+000	-5.1029143E-005	3.8041353E-006
2	0	0	0	1	3.716503906113212E+002	-5.6833470E-001	-5.6857777E-001	-6.801030899934807E-003	2.000000000000000E+000	-5.1255538E-005	3.8669150E-006
2	0	0	1	1	3.716837906104774E+002	-5.7167786E-001	-5.7190818E-001	-6.873233867054643E-003	2.000000000000000E+000	-5.1485669E-005	3.9308588E-006
2	0	0	1	1	3.717169906096387E+002	-5.7499659E-001	-5.7522148E-001	-6.943588733211742E-003	2.000000000000000E+000	-5.1716794E-005	3.9941015E-006
2	0	0	0	1	3.717503906087950E+002	-5.7833529E-001	-5.7856435E-001	-7.015822243993136E-003	2.000000000000000E+000	-5.1951694E-005	4.0591044E-006
2	0	0	1	1	3.717837906079512E+002	-5.8167404E-001	-5.8187789E-001	-7.094401654429469E-003	2.000000000000000E+000	-5.2189134E-005	4.1280755E-006
2	0	0	1	1	3.718169906071125E+002	-5.8499277E-001	-5.8522075E-001	-7.178233090844179E-003	2.000000000000000E+000	-5.2427848E-005	4.2008510E-006
2	0	0	0	1	3.718503906062688E+002	-5.8833814E-001	-5.8856064E-001	-7.259373263050664E-003	2.000000000000000E+000	-5.2670730E-005	4.2725815E-006
2	0	0	0	1	3.718835906054301E+002	-5.9165692E-001	-5.9189951E-001	-7.338056487496927E-003	2.000000000000000E+000	-5.2914853E-005	4.3433920E-006
2	0	0	1	1	3.719169906045863E+002	-5.9499562E-001	-5.9523737E-001	-7.424297643872826E-003	2.000000000000000E+000	-5.3163159E-005	4.4192193E-006
2	0	0	0	1	3.719486906037855E+002	-5.9816480E-001	-5.9837633E-001	-7.501555453775718E-003	2.000000000000000E+000	-5.3401338E-005	4.4887533E-006
2	0	0	0	1	3.719653906033636E+002	-5.9982693E-001	-6.0001981E-001	-7.552918201933309E-003	2.000000000000000E+000	-5.3527685E-005	4.5319007E-006