EC-Lab ASCII FILE
Nb header lines : 53                          

Cyclic Voltammetry

Run on channel : 1 (SN 0696)
User : 
Electrode connection : standard
Ewe ctrl range : min = -10.00 V, max = 10.00 V
Ewe,I filtering : 50 kHz
Channel : Grounded
Acquisition started on : 05/17/2017 13:04:41
Saved on :
	File : 100 uM RS 10mM SHU_08_CV_C01.mpr
	Directory : \\userfs\st659\w2k\EC-Lab\Data\ITO Characterisation 17-5-17\
	Host : 144.32.136.43
Device : SP-300 (SN 0182)
Address : USB
EC-Lab for windows v10.44 (software)
Internet server v10.44 (firmware)
Command interpretor v10.44 (firmware)
Electrode material : 
Initial state : 
Electrolyte : 
Comments : 
Cable : standard
Electrode surface area : 0.001 cm²
Characteristic mass : 0.001 g
Equivalent Weight : 0.000 g/eq.
Density : 0.000 g/cm3
Ei (V)              0.000               
vs.                 Eoc                 
dE/dt               5000.000            
dE/dt unit          mV/s                
E1 (V)              0.100               
vs.                 Ref                 
Step percent        50                  
N                   10                  
E range min (V)     -10.000             
E range max (V)     10.000              
I Range             Auto                
I Range min         Unset               
I Range max         Unset               
I Range init        Unset               
Bandwidth           8                   
E2 (V)              -0.600              
vs.                 Ref                 
nc cycles           2                   
Reverse Scan        1                   
Ef (V)              0.000               
vs.                 Eoc                 

mode	ox/red	error	control changes	counter inc.	time/s	control/V	Ewe/V	<I>/mA	cycle number	(Q-Qo)/C	P/W
2	1	0	1	1	4.341411890326708E+002	-5.9916055E-001	-5.9944749E-001	-3.353479504585266E-002	2.000000000000000E+000	-3.0947590E-006	2.0102349E-005
2	1	0	0	1	4.341422890326430E+002	-5.9366274E-001	-5.9395856E-001	-2.771889574796663E-002	2.000000000000000E+000	-3.1257430E-006	1.6463875E-005
2	1	0	0	1	4.341442890325925E+002	-5.8366662E-001	-5.8393818E-001	-2.048281372177975E-002	2.000000000000000E+000	-3.1730933E-006	1.1960697E-005
2	1	0	0	1	4.341462890325420E+002	-5.7367039E-001	-5.7395118E-001	-1.565874164488276E-002	2.000000000000000E+000	-3.2086975E-006	8.9873529E-006
2	1	0	0	1	4.341482890324914E+002	-5.6367421E-001	-5.6393564E-001	-1.210240182141804E-002	2.000000000000000E+000	-3.2360649E-006	6.8249756E-006
2	1	0	0	1	4.341502890324409E+002	-5.5367804E-001	-5.5394673E-001	-9.299750066929791E-003	2.000000000000000E+000	-3.2571691E-006	5.1515663E-006
2	1	0	0	1	4.341522890323904E+002	-5.4368180E-001	-5.4391491E-001	-7.023640773594603E-003	2.000000000000000E+000	-3.2732471E-006	3.8202629E-006
2	1	0	0	1	4.341542890323399E+002	-5.3368568E-001	-5.3393108E-001	-5.165822172026921E-003	2.000000000000000E+000	-3.2852390E-006	2.7581930E-006
2	1	0	0	1	4.341562890322894E+002	-5.2368945E-001	-5.2394736E-001	-3.583649124670456E-003	2.000000000000000E+000	-3.2938217E-006	1.8776435E-006
2	1	0	0	1	4.341582890322388E+002	-5.1369327E-001	-5.1395607E-001	-2.229553343542849E-003	2.000000000000000E+000	-3.2994903E-006	1.1458925E-006
2	1	0	0	1	4.341602890321883E+002	-5.0369710E-001	-5.0395232E-001	-1.049142435123130E-003	2.000000000000000E+000	-3.3026467E-006	5.2871775E-007
2	1	0	0	1	4.341622890321378E+002	-4.9370089E-001	-4.9393401E-001	-2.065576285580209E-005	2.000000000000000E+000	-3.3036081E-006	1.0202584E-008
2	1	0	0	1	4.341642890320873E+002	-4.8370466E-001	-4.8396334E-001	8.846386921214208E-004	2.000000000000000E+000	-3.3026511E-006	4.2813269E-007
2	1	0	0	1	4.341662890320367E+002	-4.7370848E-001	-4.7396713E-001	1.701384734663712E-003	2.000000000000000E+000	-3.2999812E-006	8.0640046E-007
2	1	0	0	1	4.341682890319862E+002	-4.6371230E-001	-4.6394467E-001	2.455221191566020E-003	2.000000000000000E+000	-3.2957498E-006	1.1390867E-006
2	1	0	0	1	4.341702890319357E+002	-4.5371613E-001	-4.5394638E-001	3.111291984168936E-003	2.000000000000000E+000	-3.2901171E-006	1.4123598E-006
2	1	0	0	1	4.341722890318852E+002	-4.4371995E-001	-4.4396871E-001	3.681018444088597E-003	2.000000000000000E+000	-3.2832638E-006	1.6342570E-006
2	1	0	0	1	4.341742890318346E+002	-4.3372375E-001	-4.3395492E-001	4.243031934695149E-003	2.000000000000000E+000	-3.2752839E-006	1.8412846E-006
2	1	0	0	1	4.341762890317841E+002	-4.2372760E-001	-4.2397717E-001	4.747114859532692E-003	2.000000000000000E+000	-3.2662415E-006	2.0126683E-006
2	1	0	0	1	4.341782890317336E+002	-4.1373140E-001	-4.1400415E-001	5.187758405150400E-003	2.000000000000000E+000	-3.2562623E-006	2.1477535E-006
2	1	0	0	1	4.341802890316831E+002	-4.0373519E-001	-4.0399629E-001	5.618147246928468E-003	2.000000000000000E+000	-3.2454132E-006	2.2697106E-006
2	1	0	0	1	4.341822890316325E+002	-3.9373896E-001	-3.9399335E-001	6.015607681648494E-003	2.000000000000000E+000	-3.2337357E-006	2.3701093E-006
2	1	0	0	1	4.341842890315820E+002	-3.8374281E-001	-3.8400200E-001	6.386646106875570E-003	2.000000000000000E+000	-3.2212931E-006	2.4524850E-006
2	1	0	0	1	4.341862890315315E+002	-3.7374663E-001	-3.7398621E-001	6.739441190499441E-003	2.000000000000000E+000	-3.2081298E-006	2.5204581E-006
2	1	0	0	1	4.341882890314810E+002	-3.6375046E-001	-3.6400253E-001	7.044009772269218E-003	2.000000000000000E+000	-3.1943143E-006	2.5640375E-006
2	1	0	0	1	4.341902890314304E+002	-3.5375428E-001	-3.5402071E-001	7.345103894598068E-003	2.000000000000000E+000	-3.1798966E-006	2.6003190E-006
2	1	0	0	1	4.341922890313799E+002	-3.4375805E-001	-3.4401146E-001	7.642934210707608E-003	2.000000000000000E+000	-3.1648806E-006	2.6292569E-006
2	1	0	0	1	4.341942890313294E+002	-3.3376187E-001	-3.3397901E-001	7.920699050272498E-003	2.000000000000000E+000	-3.1492873E-006	2.6453472E-006
2	1	0	0	1	4.341962890312789E+002	-3.2376567E-001	-3.2395613E-001	8.148013671214142E-003	2.000000000000000E+000	-3.1331929E-006	2.6395990E-006
2	1	0	0	1	4.341982890312283E+002	-3.1376949E-001	-3.1399408E-001	8.368525521695536E-003	2.000000000000000E+000	-3.1166549E-006	2.6276675E-006
2	1	0	0	1	4.342002890311778E+002	-3.0377331E-001	-3.0398902E-001	8.596793340580500E-003	2.000000000000000E+000	-3.0996662E-006	2.6133307E-006
2	1	0	0	1	4.342022890311273E+002	-2.9377711E-001	-2.9399493E-001	8.829320533651402E-003	2.000000000000000E+000	-3.0822234E-006	2.5957754E-006
2	1	0	0	1	4.342042890310768E+002	-2.8378090E-001	-2.8398922E-001	9.021588083063137E-003	2.000000000000000E+000	-3.0643541E-006	2.5620338E-006
2	1	0	0	1	4.342062890310262E+002	-2.7378473E-001	-2.7398482E-001	9.221060120883841E-003	2.000000000000000E+000	-3.0460885E-006	2.5264305E-006
2	1	0	0	1	4.342082890309757E+002	-2.6378855E-001	-2.6400730E-001	9.405339820760750E-003	2.000000000000000E+000	-3.0274434E-006	2.4830783E-006
2	1	0	0	1	4.342102890309252E+002	-2.5379235E-001	-2.5400516E-001	9.570824206093675E-003	2.000000000000000E+000	-3.0084500E-006	2.4310389E-006
2	1	0	0	1	4.342122890308747E+002	-2.4379615E-001	-2.4399675E-001	9.771122970050783E-003	2.000000000000000E+000	-2.9890925E-006	2.3841224E-006
2	1	0	0	1	4.342142890308241E+002	-2.3379998E-001	-2.3400946E-001	9.955762500491516E-003	2.000000000000000E+000	-2.9693419E-006	2.3297425E-006
2	1	0	0	1	4.342162890307736E+002	-2.2380379E-001	-2.2402535E-001	1.013143984386666E-002	2.000000000000000E+000	-2.9492360E-006	2.2696995E-006
2	1	0	0	1	4.342182890307231E+002	-2.1380758E-001	-2.1402602E-001	1.031650342904163E-002	2.000000000000000E+000	-2.9287680E-006	2.2080001E-006
2	1	0	0	1	4.342202890306726E+002	-2.0381142E-001	-2.0400020E-001	1.051904749147073E-002	2.000000000000000E+000	-2.9079163E-006	2.1458879E-006
2	1	0	0	1	4.342222890306221E+002	-1.9381522E-001	-1.9401589E-001	1.068980865380179E-002	2.000000000000000E+000	-2.8866882E-006	2.0739928E-006
2	1	0	0	1	4.342242890305715E+002	-1.8381904E-001	-1.8403199E-001	1.085908637307717E-002	2.000000000000000E+000	-2.8651214E-006	1.9984193E-006
2	1	0	0	1	4.342262890305210E+002	-1.7382284E-001	-1.7401569E-001	1.108430305288903E-002	2.000000000000000E+000	-2.8431582E-006	1.9288425E-006
2	1	0	0	1	4.342282890304705E+002	-1.6382666E-001	-1.6401382E-001	1.127368948740091E-002	2.000000000000000E+000	-2.8207796E-006	1.8490408E-006
2	1	0	0	1	4.342302890304200E+002	-1.5383047E-001	-1.5401445E-001	1.148199661959854E-002	2.000000000000000E+000	-2.7980018E-006	1.7683934E-006
2	1	0	0	1	4.342322890303694E+002	-1.4383429E-001	-1.4404117E-001	1.169375888396946E-002	2.000000000000000E+000	-2.7747981E-006	1.6843827E-006
2	1	0	0	1	4.342342890303189E+002	-1.3383809E-001	-1.3404183E-001	1.188943751185431E-002	2.000000000000000E+000	-2.7511974E-006	1.5936820E-006
2	1	0	0	1	4.342362890302684E+002	-1.2384190E-001	-1.2402043E-001	1.210772517454945E-002	2.000000000000000E+000	-2.7271792E-006	1.5016052E-006
2	1	0	0	1	4.342382890302179E+002	-1.1384571E-001	-1.1400773E-001	1.231141382635951E-002	2.000000000000000E+000	-2.7027420E-006	1.4035963E-006
2	1	0	0	1	4.342402890301673E+002	-1.0384952E-001	-1.0402194E-001	1.250190166542281E-002	2.000000000000000E+000	-2.6779064E-006	1.3004721E-006
2	1	0	0	1	4.342422890301168E+002	-9.3853340E-002	-9.4042294E-002	1.273347479845038E-002	2.000000000000000E+000	-2.6526509E-006	1.1974852E-006
2	1	0	0	1	4.342442890300663E+002	-8.3857141E-002	-8.4049530E-002	1.290567719924082E-002	2.000000000000000E+000	-2.6269888E-006	1.0847161E-006
2	1	0	0	1	4.342462890300158E+002	-7.3860958E-002	-7.4058443E-002	1.313561882852807E-002	2.000000000000000E+000	-2.6009275E-006	9.7280349E-007
2	1	0	0	1	4.342482890299652E+002	-6.3864768E-002	-6.4066932E-002	1.333134094703484E-002	2.000000000000000E+000	-2.5744393E-006	8.5409812E-007
2	1	0	0	1	4.342502890299147E+002	-5.3868581E-002	-5.4086234E-002	1.354861158264007E-002	2.000000000000000E+000	-2.5475374E-006	7.3279341E-007
2	1	0	0	1	4.342522890298642E+002	-4.3872390E-002	-4.4073321E-002	1.376698421942518E-002	2.000000000000000E+000	-2.5201984E-006	6.0675671E-007
2	1	0	0	1	4.342542890298137E+002	-3.3876199E-002	-3.4063585E-002	1.396389244574595E-002	2.000000000000000E+000	-2.4924498E-006	4.7566024E-007
2	1	0	0	1	4.342562890297631E+002	-2.3880010E-002	-2.4059994E-002	1.413151656823980E-002	2.000000000000000E+000	-2.4643377E-006	3.4000419E-007
2	1	0	0	1	4.342582890297126E+002	-1.3883822E-002	-1.4078025E-002	1.430304128876336E-002	2.000000000000000E+000	-2.4358912E-006	2.0135857E-007
2	1	0	0	1	4.342602890296621E+002	-3.8876329E-003	-4.0916055E-003	1.445772025120581E-002	2.000000000000000E+000	-2.4071087E-006	5.9155287E-008
2	1	0	0	1	4.342622890296116E+002	6.1085531E-003	5.9420816E-003	1.462750669775748E-002	2.000000000000000E+000	-2.3780065E-006	8.6917836E-008
2	1	0	0	1	4.342642890295610E+002	1.6104737E-002	1.5976612E-002	1.472325858756246E-002	2.000000000000000E+000	-2.3486459E-006	2.3522779E-007
2	1	0	0	1	4.342662890295105E+002	2.6100922E-002	2.5943531E-002	1.482682996983281E-002	2.000000000000000E+000	-2.3190844E-006	3.8466032E-007
2	1	0	0	1	4.342682890294600E+002	3.6097106E-002	3.5939060E-002	1.493347314903481E-002	2.000000000000000E+000	-2.2893084E-006	5.3669498E-007
2	1	0	0	1	4.342702890294095E+002	4.6407986E-002	4.6280943E-002	1.518572636976190E-002	2.000000000000000E+000	-2.2591919E-006	7.0280976E-007
2	1	0	0	1	4.342722890293589E+002	5.6422681E-002	5.6304030E-002	1.518367175049207E-002	2.000000000000000E+000	-2.2288059E-006	8.5490188E-007
2	1	0	0	1	4.342742890293084E+002	6.6418864E-002	6.6281117E-002	1.520382244982306E-002	2.000000000000000E+000	-2.1984213E-006	1.0077264E-006
2	1	0	0	1	4.342762890292579E+002	7.6415047E-002	7.6249935E-002	1.522937620494402E-002	2.000000000000000E+000	-2.1679866E-006	1.1612390E-006
2	1	0	0	1	4.342782890292074E+002	8.6411230E-002	8.6246535E-002	1.526158294958199E-002	2.000000000000000E+000	-2.1374929E-006	1.3162587E-006
2	1	0	0	1	4.342800890291619E+002	9.5407806E-002	9.5248617E-002	1.528084800702340E-002	2.000000000000000E+000	-2.1100047E-006	1.4554796E-006
2	1	0	0	1	4.342809890291392E+002	9.9906117E-002	9.9730648E-002	1.532974932342768E-002	2.000000000000000E+000	-2.0962389E-006	1.5288458E-006
2	1	0	1	1	4.342811890291341E+002	1.0090573E-001	1.0074937E-001	1.530877221375704E-002	2.000000000000000E+000	-2.0931770E-006	1.5423491E-006
2	0	0	0	1	4.342813890291291E+002	9.9906117E-002	9.9932872E-002	1.401163171976805E-002	2.000000000000000E+000	-2.0903749E-006	1.4002226E-006
2	0	0	1	1	4.342824890291013E+002	9.4408169E-002	9.4380140E-002	8.646990269981975E-003	2.000000000000000E+000	-2.0804075E-006	8.1610415E-007
2	0	0	1	1	4.342844890290507E+002	8.4411994E-002	8.4369346E-002	3.231051811275813E-003	2.000000000000000E+000	-2.0692348E-006	2.7260174E-007
2	0	0	1	1	4.342864890290002E+002	7.4415803E-002	7.4356012E-002	4.484234440642609E-004	2.000000000000000E+000	-2.0658877E-006	3.3342978E-008
2	0	0	1	1	4.342884890289497E+002	6.4419627E-002	6.4361334E-002	-1.273299483323675E-003	2.000000000000000E+000	-2.0669074E-006	8.1951256E-008
2	0	0	1	1	4.342904890288992E+002	5.4423444E-002	5.4380853E-002	-2.496638919056854E-003	2.000000000000000E+000	-2.0708110E-006	1.3576935E-007
2	0	0	1	1	4.342924890288486E+002	4.4334702E-002	4.4245213E-002	-3.513069051829604E-003	2.000000000000000E+000	-2.0769285E-006	1.5543650E-007
2	0	0	1	1	4.342944890287981E+002	3.4097869E-002	3.4009520E-002	-4.337866851074054E-003	2.000000000000000E+000	-2.0848804E-006	1.4752877E-007
2	0	0	1	1	4.342964890287476E+002	2.4101686E-002	2.4006994E-002	-4.930837522705485E-003	2.000000000000000E+000	-2.0942098E-006	1.1837459E-007
2	0	0	1	1	4.342984890286971E+002	1.4105500E-002	1.4022063E-002	-5.481388296579501E-003	2.000000000000000E+000	-2.1046790E-006	7.6860374E-008
2	0	0	1	1	4.343004890286466E+002	4.1093160E-003	3.9957971E-003	-5.992717716051435E-003	2.000000000000000E+000	-2.1162066E-006	2.3945685E-008
2	0	0	1	1	4.343024890285960E+002	-5.8868709E-003	-5.9986752E-003	-6.464466696848414E-003	2.000000000000000E+000	-2.1287110E-006	3.8778236E-008
2	0	0	1	1	4.343044890285455E+002	-1.5883060E-002	-1.6011592E-002	-6.896571762202566E-003	2.000000000000000E+000	-2.1421151E-006	1.1042509E-007
2	0	0	1	1	4.343064890284950E+002	-2.5879247E-002	-2.5991863E-002	-7.280725712613872E-003	2.000000000000000E+000	-2.1563355E-006	1.8923963E-007
2	0	0	1	1	4.343084890284445E+002	-3.5875440E-002	-3.6011141E-002	-7.661595667438320E-003	2.000000000000000E+000	-2.1713161E-006	2.7590281E-007
2	0	0	1	1	4.343104890283939E+002	-4.5871627E-002	-4.6009220E-002	-8.035917973352819E-003	2.000000000000000E+000	-2.1870515E-006	3.6972631E-007
2	0	0	1	1	4.343124890283434E+002	-5.5867817E-002	-5.6009628E-002	-8.382971266857761E-003	2.000000000000000E+000	-2.2035019E-006	4.6952709E-007
2	0	0	1	1	4.343144890282929E+002	-6.5864004E-002	-6.5994568E-002	-8.703940186529063E-003	2.000000000000000E+000	-2.2206211E-006	5.7441275E-007
2	0	0	1	1	4.343164890282424E+002	-7.5860187E-002	-7.5992420E-002	-9.031054305827041E-003	2.000000000000000E+000	-2.2383847E-006	6.8629168E-007
2	0	0	1	1	4.343184890281918E+002	-8.5856386E-002	-8.5960612E-002	-9.316023001701979E-003	2.000000000000000E+000	-2.2567631E-006	8.0081105E-007
2	0	0	1	1	4.343204890281413E+002	-9.5852576E-002	-9.5968664E-002	-9.650001733057745E-003	2.000000000000000E+000	-2.2757624E-006	9.2609775E-007
2	0	0	1	1	4.343224890280908E+002	-1.0584876E-001	-1.0594278E-001	-9.964445232981206E-003	2.000000000000000E+000	-2.2954091E-006	1.0556610E-006
2	0	0	1	1	4.343244890280403E+002	-1.1584495E-001	-1.1594510E-001	-1.026835632385176E-002	2.000000000000000E+000	-2.3156731E-006	1.1905656E-006
2	0	0	1	1	4.343264890279897E+002	-1.2584114E-001	-1.2596460E-001	-1.058299037524391E-002	2.000000000000000E+000	-2.3365574E-006	1.3330821E-006
2	0	0	1	1	4.343284890279392E+002	-1.3583733E-001	-1.3597116E-001	-1.090527308669052E-002	2.000000000000000E+000	-2.3580787E-006	1.4828026E-006
2	0	0	1	1	4.343304890278887E+002	-1.4583351E-001	-1.4595906E-001	-1.121153758403023E-002	2.000000000000000E+000	-2.3802261E-006	1.6364255E-006
2	0	0	1	1	4.343324890278382E+002	-1.5582970E-001	-1.5594038E-001	-1.151089338135436E-002	2.000000000000000E+000	-2.4029787E-006	1.7950131E-006
2	0	0	1	1	4.343344890277876E+002	-1.6582589E-001	-1.6595626E-001	-1.185209777819789E-002	2.000000000000000E+000	-2.4263752E-006	1.9669299E-006
2	0	0	1	1	4.343364890277371E+002	-1.7582208E-001	-1.7595710E-001	-1.217372393613106E-002	2.000000000000000E+000	-2.4504359E-006	2.1420531E-006
2	0	0	1	1	4.343384890276866E+002	-1.8581827E-001	-1.8595773E-001	-1.248606856077254E-002	2.000000000000000E+000	-2.4751303E-006	2.3218809E-006
2	0	0	1	1	4.343404890276361E+002	-1.9581446E-001	-1.9592530E-001	-1.277355943481478E-002	2.000000000000000E+000	-2.5004222E-006	2.5026634E-006
2	0	0	1	1	4.343424890275855E+002	-2.0581064E-001	-2.0594668E-001	-1.313830371731858E-002	2.000000000000000E+000	-2.5263671E-006	2.7057902E-006
2	0	0	1	1	4.343444890275350E+002	-2.1580683E-001	-2.1596912E-001	-1.348654387725723E-002	2.000000000000000E+000	-2.5530301E-006	2.9126770E-006
2	0	0	1	1	4.343464890274845E+002	-2.2580302E-001	-2.2596318E-001	-1.382550237900027E-002	2.000000000000000E+000	-2.5803708E-006	3.1240545E-006
2	0	0	1	1	4.343484890274340E+002	-2.3579921E-001	-2.3595318E-001	-1.419304412471924E-002	2.000000000000000E+000	-2.6084222E-006	3.3488939E-006
2	0	0	1	1	4.343504890273834E+002	-2.4579538E-001	-2.4593601E-001	-1.453297686445392E-002	2.000000000000000E+000	-2.6371818E-006	3.5741823E-006
2	0	0	1	1	4.343524890273329E+002	-2.5579160E-001	-2.5593770E-001	-1.488070731546839E-002	2.000000000000000E+000	-2.6666319E-006	3.8085338E-006
2	0	0	1	1	4.343544890272824E+002	-2.6578775E-001	-2.6592052E-001	-1.520748306029421E-002	2.000000000000000E+000	-2.6967498E-006	4.0439818E-006
2	0	0	1	1	4.343564890272319E+002	-2.7578396E-001	-2.7591118E-001	-1.557328728530491E-002	2.000000000000000E+000	-2.7275696E-006	4.2968441E-006
2	0	0	1	1	4.343584890271813E+002	-2.8578016E-001	-2.8589588E-001	-1.592534061920658E-002	2.000000000000000E+000	-2.7591018E-006	4.5529891E-006
2	0	0	1	1	4.343604890271308E+002	-2.9577634E-001	-2.9589400E-001	-1.624770806423231E-002	2.000000000000000E+000	-2.7913054E-006	4.8075995E-006
2	0	0	1	1	4.343624890270803E+002	-3.0577254E-001	-3.0592135E-001	-1.657276581115893E-002	2.000000000000000E+000	-2.8241659E-006	5.0699628E-006
2	0	0	1	1	4.343644890270298E+002	-3.1576875E-001	-3.1591919E-001	-1.690180945883588E-002	2.000000000000000E+000	-2.8576760E-006	5.3396061E-006
2	0	0	1	1	4.343664890269793E+002	-3.2576492E-001	-3.2589158E-001	-1.718550601981406E-002	2.000000000000000E+000	-2.8917864E-006	5.6006120E-006
2	0	0	1	1	4.343684890269287E+002	-3.3576110E-001	-3.3590832E-001	-1.748032756363999E-002	2.000000000000000E+000	-2.9264872E-006	5.8717874E-006
2	0	0	1	1	4.343704890268782E+002	-3.4575731E-001	-3.4592992E-001	-1.780417816735275E-002	2.000000000000000E+000	-2.9618159E-006	6.1589981E-006
2	0	0	1	1	4.343724890268277E+002	-3.5575351E-001	-3.5592759E-001	-1.813906845119262E-002	2.000000000000000E+000	-2.9977853E-006	6.4561950E-006
2	0	0	1	1	4.343744890267772E+002	-3.6574969E-001	-3.6591360E-001	-1.840509450226410E-002	2.000000000000000E+000	-3.0343604E-006	6.7346746E-006
2	0	0	1	1	4.343764890267266E+002	-3.7574586E-001	-3.7591317E-001	-1.869633654738823E-002	2.000000000000000E+000	-3.0714889E-006	7.0281990E-006
2	0	0	1	1	4.343784890266761E+002	-3.8574204E-001	-3.8593432E-001	-1.899653900828627E-002	2.000000000000000E+000	-3.1092152E-006	7.3314163E-006
2	0	0	1	1	4.343804890266256E+002	-3.9573821E-001	-3.9593285E-001	-1.927178449841443E-002	2.000000000000000E+000	-3.1475090E-006	7.6303322E-006
2	0	0	1	1	4.343824890265751E+002	-4.0573445E-001	-4.0590352E-001	-1.958559067255305E-002	2.000000000000000E+000	-3.1863963E-006	7.9498604E-006
2	0	0	1	1	4.343844890265245E+002	-4.1573063E-001	-4.1591522E-001	-1.989622088755516E-002	2.000000000000000E+000	-3.2259111E-006	8.2751412E-006
2	0	0	1	1	4.343864890264740E+002	-4.2572683E-001	-4.2590886E-001	-2.022093808086034E-002	2.000000000000000E+000	-3.2660616E-006	8.6122764E-006
2	0	0	1	1	4.343884890264235E+002	-4.3572298E-001	-4.3588677E-001	-2.057386125468641E-002	2.000000000000000E+000	-3.3069018E-006	8.9678742E-006
2	0	0	1	1	4.343904890263730E+002	-4.4571918E-001	-4.4587913E-001	-2.089650335781501E-002	2.000000000000000E+000	-3.3484046E-006	9.3173148E-006
2	0	0	1	1	4.343924890263224E+002	-4.5571539E-001	-4.5586070E-001	-2.124527254394099E-002	2.000000000000000E+000	-3.3905774E-006	9.6848853E-006
2	0	0	1	1	4.343944890262719E+002	-4.6571150E-001	-4.6587718E-001	-2.163955545216192E-002	2.000000000000000E+000	-3.4335010E-006	1.0081375E-005
2	0	0	1	1	4.343964890262214E+002	-4.7570771E-001	-4.7587764E-001	-2.203589401768924E-002	2.000000000000000E+000	-3.4772174E-006	1.0486389E-005
2	0	0	1	1	4.343984890261709E+002	-4.8570392E-001	-4.8588011E-001	-2.245019825810840E-002	2.000000000000000E+000	-3.5217515E-006	1.0908105E-005
2	0	0	1	1	4.344004890261203E+002	-4.9570009E-001	-4.9586487E-001	-2.289306796673263E-002	2.000000000000000E+000	-3.5671403E-006	1.1351868E-005
2	0	0	1	1	4.344024890260698E+002	-5.0569630E-001	-5.0586253E-001	-2.333142383172848E-002	2.000000000000000E+000	-3.6134072E-006	1.1802493E-005
2	0	0	1	1	4.344044890260193E+002	-5.1569253E-001	-5.1588243E-001	-2.382184043098176E-002	2.000000000000000E+000	-3.6606139E-006	1.2289269E-005
2	0	0	1	1	4.344064890259688E+002	-5.2568865E-001	-5.2587843E-001	-2.433804328272043E-002	2.000000000000000E+000	-3.7088255E-006	1.2798852E-005
2	0	0	1	1	4.344084890259182E+002	-5.3568488E-001	-5.3584701E-001	-2.486723476370871E-002	2.000000000000000E+000	-3.7580851E-006	1.3325033E-005
2	0	0	1	1	4.344104890258677E+002	-5.4568112E-001	-5.4584426E-001	-2.543092177559927E-002	2.000000000000000E+000	-3.8084363E-006	1.3881323E-005
2	0	0	1	1	4.344124890258172E+002	-5.5567724E-001	-5.5585337E-001	-2.605006039084395E-002	2.000000000000000E+000	-3.8599751E-006	1.4480014E-005
2	0	0	1	1	4.344144890257667E+002	-5.6567347E-001	-5.6586224E-001	-2.673153787408304E-002	2.000000000000000E+000	-3.9128199E-006	1.5126368E-005
2	0	0	1	1	4.344164890257161E+002	-5.7566965E-001	-5.7584167E-001	-2.739691055911753E-002	2.000000000000000E+000	-3.9670085E-006	1.5776282E-005
2	0	0	1	1	4.344184890256656E+002	-5.8566582E-001	-5.8584970E-001	-2.813979163693137E-002	2.000000000000000E+000	-4.0226182E-006	1.6485688E-005
2	0	0	1	1	4.344202890256202E+002	-5.9466243E-001	-5.9484434E-001	-2.884086042623871E-002	2.000000000000000E+000	-4.0739001E-006	1.7155822E-005
2	0	0	1	1	4.344211890255974E+002	-5.9916055E-001	-5.9934068E-001	-2.920514717698097E-002	2.000000000000000E+000	-4.0999562E-006	1.7503833E-005
2	0	0	0	1	4.344213890255924E+002	-6.0016018E-001	-6.0031742E-001	-2.924747951328754E-002	2.000000000000000E+000	-4.1058061E-006	1.7557772E-005