EC-Lab ASCII FILE
Nb header lines : 53                          

Cyclic Voltammetry

Run on channel : 1 (SN 0696)
User : 
Electrode connection : standard
Ewe ctrl range : min = -10.00 V, max = 10.00 V
Ewe,I filtering : 50 kHz
Channel : Grounded
Acquisition started on : 05/17/2017 13:04:41
Saved on :
	File : 100 uM RS 10mM SHU_07_CV_C01.mpr
	Directory : \\userfs\st659\w2k\EC-Lab\Data\ITO Characterisation 17-5-17\
	Host : 144.32.136.43
Device : SP-300 (SN 0182)
Address : USB
EC-Lab for windows v10.44 (software)
Internet server v10.44 (firmware)
Command interpretor v10.44 (firmware)
Electrode material : 
Initial state : 
Electrolyte : 
Comments : 
Cable : standard
Electrode surface area : 0.001 cm²
Characteristic mass : 0.001 g
Equivalent Weight : 0.000 g/eq.
Density : 0.000 g/cm3
Ei (V)              0.000               
vs.                 Eoc                 
dE/dt               2500.000            
dE/dt unit          mV/s                
E1 (V)              0.100               
vs.                 Ref                 
Step percent        50                  
N                   10                  
E range min (V)     -10.000             
E range max (V)     10.000              
I Range             Auto                
I Range min         Unset               
I Range max         Unset               
I Range init        Unset               
Bandwidth           8                   
E2 (V)              -0.600              
vs.                 Ref                 
nc cycles           2                   
Reverse Scan        1                   
Ef (V)              0.000               
vs.                 Eoc                 

mode	ox/red	error	control changes	counter inc.	time/s	control/V	Ewe/V	<I>/mA	cycle number	(Q-Qo)/C	P/W
2	1	0	0	1	4.322721890798857E+002	-5.9982693E-001	-6.0014570E-001	-2.053974568843842E-002	2.000000000000000E+000	-3.3805245E-006	1.2326840E-005
2	1	0	1	1	4.322732890798579E+002	-5.9699488E-001	-5.9728044E-001	-1.764225353953308E-002	2.000000000000000E+000	-3.4001675E-006	1.0537373E-005
2	1	0	1	1	4.322752890798074E+002	-5.9199679E-001	-5.9227169E-001	-1.413930874938764E-002	2.000000000000000E+000	-3.4315392E-006	8.3743125E-006
2	1	0	1	1	4.322772890797569E+002	-5.8699864E-001	-5.8728027E-001	-1.191860951439591E-002	2.000000000000000E+000	-3.4573377E-006	6.9995644E-006
2	1	0	1	1	4.322792890797064E+002	-5.8200049E-001	-5.8226424E-001	-1.037760648048587E-002	2.000000000000000E+000	-3.4794659E-006	6.0425091E-006
2	1	0	1	1	4.322812890796558E+002	-5.7700247E-001	-5.7727796E-001	-9.203955169646727E-003	2.000000000000000E+000	-3.4989218E-006	5.3132403E-006
2	1	0	1	1	4.322832890796053E+002	-5.7200438E-001	-5.7227743E-001	-8.256240000668560E-003	2.000000000000000E+000	-3.5162816E-006	4.7248600E-006
2	1	0	1	1	4.322852890795548E+002	-5.6700629E-001	-5.6729895E-001	-7.451296269613931E-003	2.000000000000000E+000	-3.5319049E-006	4.2271126E-006
2	1	0	1	1	4.322872890795043E+002	-5.6200820E-001	-5.6227022E-001	-6.735684579931941E-003	2.000000000000000E+000	-3.5460162E-006	3.7872749E-006
2	1	0	1	1	4.322892890794537E+002	-5.5701005E-001	-5.5729008E-001	-6.126144073075691E-003	2.000000000000000E+000	-3.5588130E-006	3.4140394E-006
2	1	0	1	1	4.322912890794032E+002	-5.5201197E-001	-5.5227834E-001	-5.555040709017103E-003	2.000000000000000E+000	-3.5704375E-006	3.0679287E-006
2	1	0	1	1	4.322932890793527E+002	-5.4701388E-001	-5.4725701E-001	-5.054368551504429E-003	2.000000000000000E+000	-3.5809953E-006	2.7660385E-006
2	1	0	1	1	4.322952890793022E+002	-5.4201579E-001	-5.4225987E-001	-4.594082455595417E-003	2.000000000000000E+000	-3.5905960E-006	2.4911865E-006
2	1	0	1	1	4.322972890792516E+002	-5.3701770E-001	-5.3726441E-001	-4.167254620420453E-003	2.000000000000000E+000	-3.5993135E-006	2.2389177E-006
2	1	0	1	1	4.322992890792011E+002	-5.3201962E-001	-5.3227091E-001	-3.787147165793498E-003	2.000000000000000E+000	-3.6072258E-006	2.0157884E-006
2	1	0	1	1	4.323012890791506E+002	-5.2702153E-001	-5.2728140E-001	-3.416066480642466E-003	2.000000000000000E+000	-3.6143940E-006	1.8012283E-006
2	1	0	1	1	4.323032890791001E+002	-5.2202338E-001	-5.2230000E-001	-3.073845022906120E-003	2.000000000000000E+000	-3.6208464E-006	1.6054693E-006
2	1	0	1	1	4.323052890790495E+002	-5.1702535E-001	-5.1729435E-001	-2.746582995668080E-003	2.000000000000000E+000	-3.6266347E-006	1.4207918E-006
2	1	0	1	1	4.323072890789990E+002	-5.1202720E-001	-5.1228827E-001	-2.441060469285121E-003	2.000000000000000E+000	-3.6317913E-006	1.2505267E-006
2	1	0	1	1	4.323092890789485E+002	-5.0702912E-001	-5.0729650E-001	-2.152531590379821E-003	2.000000000000000E+000	-3.6363565E-006	1.0919717E-006
2	1	0	1	1	4.323112890788980E+002	-5.0203103E-001	-5.0230718E-001	-1.881144645444189E-003	2.000000000000000E+000	-3.6403615E-006	9.4491247E-007
2	1	0	1	1	4.323132890788474E+002	-4.9703297E-001	-4.9729571E-001	-1.612702750384821E-003	2.000000000000000E+000	-3.6438284E-006	8.0199015E-007
2	1	0	1	1	4.323152890787969E+002	-4.9203485E-001	-4.9229869E-001	-1.369560518974647E-003	2.000000000000000E+000	-3.6467848E-006	6.7423287E-007
2	1	0	1	1	4.323172890787464E+002	-4.8703676E-001	-4.8730963E-001	-1.139979062991691E-003	2.000000000000000E+000	-3.6492711E-006	5.5552277E-007
2	1	0	1	1	4.323192890786959E+002	-4.8203868E-001	-4.8231250E-001	-9.193605198510764E-004	2.000000000000000E+000	-3.6513061E-006	4.4341908E-007
2	1	0	1	1	4.323212890786454E+002	-4.7704056E-001	-4.7729862E-001	-6.937838374041234E-004	2.000000000000000E+000	-3.6528991E-006	3.3114208E-007
2	1	0	1	1	4.323232890785948E+002	-4.7204247E-001	-4.7231740E-001	-4.874889414926038E-004	2.000000000000000E+000	-3.6540580E-006	2.3024951E-007
2	1	0	1	1	4.323252890785443E+002	-4.6704438E-001	-4.6730331E-001	-2.832282462021697E-004	2.000000000000000E+000	-3.6548092E-006	1.3235349E-007
2	1	0	1	1	4.323272890784938E+002	-4.6204627E-001	-4.6229854E-001	-8.636244807331325E-005	2.000000000000000E+000	-3.6551569E-006	3.9925233E-008
2	1	0	1	1	4.323292890784433E+002	-4.5704818E-001	-4.5729697E-001	9.115790134275577E-005	2.000000000000000E+000	-3.6551342E-006	4.1686231E-008
2	1	0	1	1	4.323312890783927E+002	-4.5205009E-001	-4.5231554E-001	2.728948156642558E-004	2.000000000000000E+000	-3.6547497E-006	1.2343456E-007
2	1	0	1	1	4.323332890783422E+002	-4.4705197E-001	-4.4730118E-001	4.421727254566572E-004	2.000000000000000E+000	-3.6540162E-006	1.9778439E-007
2	1	0	1	1	4.323352890782917E+002	-4.4205391E-001	-4.4231448E-001	5.995212686811005E-004	2.000000000000000E+000	-3.6529602E-006	2.6517694E-007
2	1	0	1	1	4.323372890782412E+002	-4.3705583E-001	-4.3731162E-001	7.619551029923364E-004	2.000000000000000E+000	-3.6515814E-006	3.3321183E-007
2	1	0	1	1	4.323392890781906E+002	-4.3205774E-001	-4.3230963E-001	9.201936158610298E-004	2.000000000000000E+000	-3.6498850E-006	3.9780855E-007
2	1	0	1	1	4.323412890781401E+002	-4.2705965E-001	-4.2732632E-001	1.065337353465010E-003	2.000000000000000E+000	-3.6478862E-006	4.5524669E-007
2	1	0	1	1	4.323432890780896E+002	-4.2206156E-001	-4.2233405E-001	1.204844812062017E-003	2.000000000000000E+000	-3.6456054E-006	5.0884699E-007
2	1	0	1	1	4.323452890780391E+002	-4.1706344E-001	-4.1733515E-001	1.345856741055387E-003	2.000000000000000E+000	-3.6430420E-006	5.6167335E-007
2	1	0	1	1	4.323472890779885E+002	-4.1206536E-001	-4.1232368E-001	1.500980443476392E-003	2.000000000000000E+000	-3.6401764E-006	6.1888977E-007
2	1	0	1	1	4.323492890779380E+002	-4.0706727E-001	-4.0733200E-001	1.631270835383078E-003	2.000000000000000E+000	-3.6370302E-006	6.6446881E-007
2	1	0	1	1	4.323512890778875E+002	-4.0206912E-001	-4.0234336E-001	1.753763735501304E-003	2.000000000000000E+000	-3.6336316E-006	7.0561521E-007
2	1	0	1	1	4.323532890778370E+002	-3.9705253E-001	-3.9733291E-001	1.892699129206851E-003	2.000000000000000E+000	-3.6299634E-006	7.5203167E-007
2	1	0	1	1	4.323552890777864E+002	-3.9190635E-001	-3.9217827E-001	2.085814468020747E-003	2.000000000000000E+000	-3.6259607E-006	8.1801113E-007
2	1	0	1	1	4.323572890777359E+002	-3.8690829E-001	-3.8717732E-001	2.163429214205190E-003	2.000000000000000E+000	-3.6217018E-006	8.3763069E-007
2	1	0	1	1	4.323592890776854E+002	-3.8191018E-001	-3.8216576E-001	2.269352382225205E-003	2.000000000000000E+000	-3.6172578E-006	8.6726880E-007
2	1	0	1	1	4.323612890776349E+002	-3.7691209E-001	-3.7715381E-001	2.375720577472547E-003	2.000000000000000E+000	-3.6126016E-006	8.9601207E-007
2	1	0	1	1	4.323632890775843E+002	-3.7191400E-001	-3.7215051E-001	2.485902575952222E-003	2.000000000000000E+000	-3.6077306E-006	9.2512994E-007
2	1	0	1	1	4.323652890775338E+002	-3.6691591E-001	-3.6714533E-001	2.591084014764222E-003	2.000000000000000E+000	-3.6026424E-006	9.5130440E-007
2	1	0	1	1	4.323672890774833E+002	-3.6191779E-001	-3.6217281E-001	2.688849525940101E-003	2.000000000000000E+000	-3.5973515E-006	9.7382815E-007
2	1	0	1	1	4.323692890774328E+002	-3.5691974E-001	-3.5718647E-001	2.779643867749364E-003	2.000000000000000E+000	-3.5918754E-006	9.9285114E-007
2	1	0	1	1	4.323712890773822E+002	-3.5192162E-001	-3.5219017E-001	2.879888415817627E-003	2.000000000000000E+000	-3.5862049E-006	1.0142684E-006
2	1	0	1	1	4.323732890773317E+002	-3.4692353E-001	-3.4717947E-001	2.979306672285832E-003	2.000000000000000E+000	-3.5803384E-006	1.0343541E-006
2	1	0	1	1	4.323752890772812E+002	-3.4192541E-001	-3.4218493E-001	3.075059161296342E-003	2.000000000000000E+000	-3.5742758E-006	1.0522389E-006
2	1	0	1	1	4.323772890772307E+002	-3.3692732E-001	-3.3715194E-001	3.178100722531482E-003	2.000000000000000E+000	-3.5680155E-006	1.0715029E-006
2	1	0	1	1	4.323792890771801E+002	-3.3192924E-001	-3.3215821E-001	3.255270634175165E-003	2.000000000000000E+000	-3.5615728E-006	1.0812648E-006
2	1	0	1	1	4.323812890771296E+002	-3.2693115E-001	-3.2715765E-001	3.359985970392814E-003	2.000000000000000E+000	-3.5549492E-006	1.0992451E-006
2	1	0	1	1	4.323832890770791E+002	-3.2193303E-001	-3.2215825E-001	3.438511969509117E-003	2.000000000000000E+000	-3.5481423E-006	1.1077450E-006
2	1	0	1	1	4.323852890770286E+002	-3.1693494E-001	-3.1717211E-001	3.512185418862321E-003	2.000000000000000E+000	-3.5411815E-006	1.1139673E-006
2	1	0	1	1	4.323872890769781E+002	-3.1193686E-001	-3.1216496E-001	3.593233009976569E-003	2.000000000000000E+000	-3.5340645E-006	1.1216814E-006
2	1	0	1	1	4.323892890769275E+002	-3.0693874E-001	-3.0718380E-001	3.686146116352679E-003	2.000000000000000E+000	-3.5267760E-006	1.1323244E-006
2	1	0	1	1	4.323912890768770E+002	-3.0194068E-001	-3.0217266E-001	3.761493845154801E-003	2.000000000000000E+000	-3.5193191E-006	1.1366207E-006
2	1	0	1	1	4.323932890768265E+002	-2.9694256E-001	-2.9715943E-001	3.858369282069273E-003	2.000000000000000E+000	-3.5116925E-006	1.1465509E-006
2	1	0	1	1	4.323952890767760E+002	-2.9194447E-001	-2.9214090E-001	3.928292452150754E-003	2.000000000000000E+000	-3.5038959E-006	1.1476149E-006
2	1	0	1	1	4.323972890767254E+002	-2.8694639E-001	-2.8715351E-001	4.007920185712386E-003	2.000000000000000E+000	-3.4959517E-006	1.1508884E-006
2	1	0	1	1	4.323992890766749E+002	-2.8194827E-001	-2.8214684E-001	4.075788084770049E-003	2.000000000000000E+000	-3.4878590E-006	1.1499708E-006
2	1	0	1	1	4.324012890766244E+002	-2.7695021E-001	-2.7717450E-001	4.145245107742494E-003	2.000000000000000E+000	-3.4796321E-006	1.1489562E-006
2	1	0	1	1	4.324032890765739E+002	-2.7195212E-001	-2.7218309E-001	4.241252018649277E-003	2.000000000000000E+000	-3.4712389E-006	1.1543971E-006
2	1	0	1	1	4.324052890765233E+002	-2.6695397E-001	-2.6717219E-001	4.298991557940696E-003	2.000000000000000E+000	-3.4626910E-006	1.1485710E-006
2	1	0	1	1	4.324072890764728E+002	-2.6195592E-001	-2.6217210E-001	4.386247518040266E-003	2.000000000000000E+000	-3.4539978E-006	1.1499517E-006
2	1	0	1	1	4.324092890764223E+002	-2.5695780E-001	-2.5717092E-001	4.456658085625051E-003	2.000000000000000E+000	-3.4451477E-006	1.1461228E-006
2	1	0	1	1	4.324112890763718E+002	-2.5195974E-001	-2.5219625E-001	4.522470912231957E-003	2.000000000000000E+000	-3.4361665E-006	1.1405502E-006
2	1	0	1	1	4.324132890763212E+002	-2.4696164E-001	-2.4719766E-001	4.589660596138859E-003	2.000000000000000E+000	-3.4270454E-006	1.1345534E-006
2	1	0	1	1	4.324152890762707E+002	-2.4196354E-001	-2.4218865E-001	4.671004471472576E-003	2.000000000000000E+000	-3.4177795E-006	1.1312643E-006
2	1	0	1	1	4.324172890762202E+002	-2.3696545E-001	-2.3718663E-001	4.746246226204669E-003	2.000000000000000E+000	-3.4083557E-006	1.1257462E-006
2	1	0	1	1	4.324192890761697E+002	-2.3196734E-001	-2.3221409E-001	4.814050597107976E-003	2.000000000000000E+000	-3.3987887E-006	1.1178904E-006
2	1	0	1	1	4.324212890761191E+002	-2.2696924E-001	-2.2721443E-001	4.894928474843463E-003	2.000000000000000E+000	-3.3890708E-006	1.1121983E-006
2	1	0	1	1	4.324232890760686E+002	-2.2197117E-001	-2.2219969E-001	4.980086561267333E-003	2.000000000000000E+000	-3.3791896E-006	1.1065737E-006
2	1	0	1	1	4.324252890760181E+002	-2.1697307E-001	-2.1720956E-001	5.061112806894631E-003	2.000000000000000E+000	-3.3691369E-006	1.0993220E-006
2	1	0	1	1	4.324272890759676E+002	-2.1197496E-001	-2.1220775E-001	5.156589919250915E-003	2.000000000000000E+000	-3.3589140E-006	1.0942683E-006
2	1	0	1	1	4.324292890759170E+002	-2.0697688E-001	-2.0718965E-001	5.245180532761476E-003	2.000000000000000E+000	-3.3485032E-006	1.0867471E-006
2	1	0	1	1	4.324312890758665E+002	-2.0197877E-001	-2.0218827E-001	5.299063876514585E-003	2.000000000000000E+000	-3.3379490E-006	1.0714085E-006
2	1	0	1	1	4.324332890758160E+002	-1.9698067E-001	-1.9717842E-001	5.386319588978956E-003	2.000000000000000E+000	-3.3272529E-006	1.0620660E-006
2	1	0	1	1	4.324352890757655E+002	-1.9198260E-001	-1.9219592E-001	5.470566652446801E-003	2.000000000000000E+000	-3.3163869E-006	1.0514206E-006
2	1	0	1	1	4.324372890757149E+002	-1.8698449E-001	-1.8721724E-001	5.559559897038623E-003	2.000000000000000E+000	-3.3053482E-006	1.0408454E-006
2	1	0	1	1	4.324392890756644E+002	-1.8198641E-001	-1.8220504E-001	5.647366323197886E-003	2.000000000000000E+000	-3.2941314E-006	1.0289785E-006
2	1	0	1	1	4.324412890756139E+002	-1.7698832E-001	-1.7720537E-001	5.727163713850639E-003	2.000000000000000E+000	-3.2827493E-006	1.0148841E-006
2	1	0	1	1	4.324432890755634E+002	-1.7199020E-001	-1.7221206E-001	5.819144618423398E-003	2.000000000000000E+000	-3.2711955E-006	1.0021269E-006
2	1	0	1	1	4.324452890755128E+002	-1.6699213E-001	-1.6722512E-001	5.914303910887835E-003	2.000000000000000E+000	-3.2594551E-006	9.8902024E-007
2	1	0	1	1	4.324472890754623E+002	-1.6199403E-001	-1.6221696E-001	5.996495810197497E-003	2.000000000000000E+000	-3.2475346E-006	9.7273335E-007
2	1	0	1	1	4.324492890754118E+002	-1.5699592E-001	-1.5718631E-001	6.100341988106564E-003	2.000000000000000E+000	-3.2354314E-006	9.5889027E-007
2	1	0	1	1	4.324512890753613E+002	-1.5199783E-001	-1.5219598E-001	6.178486586274352E-003	2.000000000000000E+000	-3.2231396E-006	9.4034078E-007
2	1	0	1	1	4.324532890753107E+002	-1.4699973E-001	-1.4720076E-001	6.256694689404346E-003	2.000000000000000E+000	-3.2106987E-006	9.2099026E-007
2	1	0	1	1	4.324552890752602E+002	-1.4200163E-001	-1.4221486E-001	6.352489900160019E-003	2.000000000000000E+000	-3.1980740E-006	9.0341848E-007
2	1	0	1	1	4.324572890752097E+002	-1.3700356E-001	-1.3721924E-001	6.450297747707992E-003	2.000000000000000E+000	-3.1852612E-006	8.8510490E-007
2	1	0	1	1	4.324592890751592E+002	-1.3200545E-001	-1.3221085E-001	6.522149169440022E-003	2.000000000000000E+000	-3.1722786E-006	8.6229892E-007
2	1	0	1	1	4.324612890751087E+002	-1.2700737E-001	-1.2722410E-001	6.599424921255891E-003	2.000000000000000E+000	-3.1591544E-006	8.3960589E-007
2	1	0	1	1	4.324632890750581E+002	-1.2200925E-001	-1.2218393E-001	6.703949303603921E-003	2.000000000000000E+000	-3.1458389E-006	8.1911492E-007
2	1	0	1	1	4.324652890750076E+002	-1.1701117E-001	-1.1720695E-001	6.806397718517300E-003	2.000000000000000E+000	-3.1323148E-006	7.9775708E-007
2	1	0	1	1	4.324672890749571E+002	-1.1201307E-001	-1.1218692E-001	6.910604436193855E-003	2.000000000000000E+000	-3.1185882E-006	7.7527937E-007
2	1	0	1	1	4.324692890749066E+002	-1.0701498E-001	-1.0720187E-001	6.986672771644331E-003	2.000000000000000E+000	-3.1046845E-006	7.4898435E-007
2	1	0	1	1	4.324712890748560E+002	-1.0201689E-001	-1.0220961E-001	7.071851775536856E-003	2.000000000000000E+000	-3.0906165E-006	7.2281119E-007
2	1	0	1	1	4.324732890748055E+002	-9.7018793E-002	-9.7220756E-002	7.159552758316257E-003	2.000000000000000E+000	-3.0763756E-006	6.9605716E-007
2	1	0	1	1	4.324752890747550E+002	-9.2020705E-002	-9.2212386E-002	7.273040369505490E-003	2.000000000000000E+000	-3.0619335E-006	6.7066441E-007
2	1	0	1	1	4.324772890747045E+002	-8.7022610E-002	-8.7219290E-002	7.359957193127945E-003	2.000000000000000E+000	-3.0472906E-006	6.4193023E-007
2	1	0	1	1	4.324792890746539E+002	-8.2024515E-002	-8.2251616E-002	7.439076218765356E-003	2.000000000000000E+000	-3.0324804E-006	6.1187603E-007
2	1	0	1	1	4.324812890746034E+002	-7.7026419E-002	-7.7234350E-002	7.539850607928299E-003	2.000000000000000E+000	-3.0174908E-006	5.8233547E-007
2	1	0	1	1	4.324832890745529E+002	-7.2028317E-002	-7.2236151E-002	7.627190892688110E-003	2.000000000000000E+000	-3.0023114E-006	5.5095893E-007
2	1	0	1	1	4.324852890745024E+002	-6.7030229E-002	-6.7253858E-002	7.715378985368379E-003	2.000000000000000E+000	-2.9869634E-006	5.1888901E-007
2	1	0	1	1	4.324872890744518E+002	-6.2032130E-002	-6.2243588E-002	7.791913312353779E-003	2.000000000000000E+000	-2.9714481E-006	4.8499663E-007
2	1	0	1	1	4.324892890744013E+002	-5.7034038E-002	-5.7250485E-002	7.881647892746634E-003	2.000000000000000E+000	-2.9557664E-006	4.5122817E-007
2	1	0	1	1	4.324912890743508E+002	-5.2035943E-002	-5.2249536E-002	7.947057646156802E-003	2.000000000000000E+000	-2.9399398E-006	4.1523006E-007
2	1	0	1	1	4.324932890743003E+002	-4.7037851E-002	-4.7263425E-002	8.034419492105385E-003	2.000000000000000E+000	-2.9239486E-006	3.7973419E-007
2	1	0	1	1	4.324952890742497E+002	-4.2039756E-002	-4.2245734E-002	8.109491553619175E-003	2.000000000000000E+000	-2.9077944E-006	3.4259142E-007
2	1	0	1	1	4.324972890741992E+002	-3.7041660E-002	-3.7224438E-002	8.191302200329015E-003	2.000000000000000E+000	-2.8914853E-006	3.0491663E-007
2	1	0	1	1	4.324992890741487E+002	-3.2043565E-002	-3.2231338E-002	8.248724238203275E-003	2.000000000000000E+000	-2.8750412E-006	2.6586741E-007
2	1	0	1	1	4.325012890740982E+002	-2.7045470E-002	-2.7228057E-002	8.320342921352780E-003	2.000000000000000E+000	-2.8584657E-006	2.2654677E-007
2	1	0	1	1	4.325032890740476E+002	-2.2047376E-002	-2.2240043E-002	8.387616691733338E-003	2.000000000000000E+000	-2.8417508E-006	1.8654096E-007
2	1	0	1	1	4.325052890739971E+002	-1.7049283E-002	-1.7260080E-002	8.455633220061515E-003	2.000000000000000E+000	-2.8249040E-006	1.4594491E-007
2	1	0	1	1	4.325072890739466E+002	-1.2051188E-002	-1.2257438E-002	8.506867753062086E-003	2.000000000000000E+000	-2.8079335E-006	1.0427240E-007
2	1	0	1	1	4.325092890738961E+002	-7.0530926E-003	-7.2615775E-003	8.571218273876496E-003	2.000000000000000E+000	-2.7908541E-006	6.2240566E-008
2	1	0	1	1	4.325112890738455E+002	-2.0549987E-003	-2.2699572E-003	8.649574793606812E-003	2.000000000000000E+000	-2.7736273E-006	1.9634165E-008
2	1	0	1	1	4.325132890737950E+002	2.9430951E-003	2.7477341E-003	8.710344746658744E-003	2.000000000000000E+000	-2.7562621E-006	2.3933712E-008
2	1	0	1	1	4.325152890737445E+002	7.9411864E-003	7.7586411E-003	8.749756288731675E-003	2.000000000000000E+000	-2.7387946E-006	6.7886219E-008
2	1	0	1	1	4.325172890736940E+002	1.2939279E-002	1.2778238E-002	8.797536787521196E-003	2.000000000000000E+000	-2.7212418E-006	1.1241702E-007
2	1	0	1	1	4.325192890736434E+002	1.7937370E-002	1.7777700E-002	8.848665758503349E-003	2.000000000000000E+000	-2.7035876E-006	1.5730893E-007
2	1	0	1	1	4.325212890735929E+002	2.2935461E-002	2.2761686E-002	8.885936994981095E-003	2.000000000000000E+000	-2.6858472E-006	2.0225890E-007
2	1	0	1	1	4.325232890735424E+002	2.7933557E-002	2.7761571E-002	8.956623016375564E-003	2.000000000000000E+000	-2.6680013E-006	2.4864994E-007
2	1	0	1	1	4.325252890734919E+002	3.2931648E-002	3.2751918E-002	9.001648818209820E-003	2.000000000000000E+000	-2.6500377E-006	2.9482126E-007
2	1	0	1	1	4.325272890734414E+002	3.7929744E-002	3.7779145E-002	9.043730329014760E-003	2.000000000000000E+000	-2.6319849E-006	3.4166439E-007
2	1	0	1	1	4.325292890733908E+002	4.3038901E-002	4.2870179E-002	9.141283811307729E-003	2.000000000000000E+000	-2.6138055E-006	3.9188848E-007
2	1	0	1	1	4.325312890733403E+002	4.8092525E-002	4.7932167E-002	9.185886597151693E-003	2.000000000000000E+000	-2.5954630E-006	4.4029946E-007
2	1	0	1	1	4.325332890732898E+002	5.3090617E-002	5.2926332E-002	9.184636762256587E-003	2.000000000000000E+000	-2.5770926E-006	4.8610912E-007
2	1	0	1	1	4.325352890732393E+002	5.8088712E-002	5.7949536E-002	9.207117451195609E-003	2.000000000000000E+000	-2.5586992E-006	5.3354819E-007
2	1	0	1	1	4.325372890731887E+002	6.3086800E-002	6.2946029E-002	9.222543602845704E-003	2.000000000000000E+000	-2.5402692E-006	5.8052251E-007
2	1	0	1	1	4.325392890731382E+002	6.8084896E-002	6.7926623E-002	9.247354967556035E-003	2.000000000000000E+000	-2.5218028E-006	6.2814161E-007
2	1	0	1	1	4.325412890730877E+002	7.3082998E-002	7.2930112E-002	9.273460214798343E-003	2.000000000000000E+000	-2.5032766E-006	6.7631447E-007
2	1	0	1	1	4.325432890730372E+002	7.8081071E-002	7.7924691E-002	9.307404433052918E-003	2.000000000000000E+000	-2.4846956E-006	7.2527661E-007
2	1	0	1	1	4.325452890729866E+002	8.3079174E-002	8.2913138E-002	9.313994408431531E-003	2.000000000000000E+000	-2.4660674E-006	7.7225252E-007
2	1	0	1	1	4.325472890729361E+002	8.8077269E-002	8.7914079E-002	9.331411251373017E-003	2.000000000000000E+000	-2.4474205E-006	8.2036240E-007
2	1	0	1	1	4.325492890728856E+002	9.3075350E-002	9.2912897E-002	9.348765158695954E-003	2.000000000000000E+000	-2.4287381E-006	8.6862087E-007
2	1	0	1	1	4.325510890728401E+002	9.7573653E-002	9.7403511E-002	9.367545083478025E-003	2.000000000000000E+000	-2.4118913E-006	9.1243180E-007
2	1	0	1	1	4.325519890728174E+002	9.9906117E-002	9.9719211E-002	9.437124244868755E-003	2.000000000000000E+000	-2.4034521E-006	9.4106258E-007
2	1	0	0	1	4.325521890728123E+002	1.0023932E-001	1.0014653E-001	9.339486248791218E-003	2.000000000000000E+000	-2.4015842E-006	9.3531713E-007
2	0	0	1	1	4.325523890728073E+002	9.9906117E-002	9.9780254E-002	8.782641962170601E-003	2.000000000000000E+000	-2.3998275E-006	8.7633424E-007
2	0	0	0	1	4.325534890727795E+002	9.7073823E-002	9.6966565E-002	6.084831931426990E-003	2.000000000000000E+000	-2.3929119E-006	5.9002525E-007
2	0	0	0	1	4.325554890727290E+002	9.2075743E-002	9.1961384E-002	3.464468181138922E-003	2.000000000000000E+000	-2.3837097E-006	3.1859730E-007
2	0	0	0	1	4.325574890726784E+002	8.7077655E-002	8.6929917E-002	2.172815946727892E-003	2.000000000000000E+000	-2.3782304E-006	1.8888271E-007
2	0	0	0	1	4.325594890726279E+002	8.2079545E-002	8.1961609E-002	1.384801845650447E-003	2.000000000000000E+000	-2.3747632E-006	1.1350059E-007
2	0	0	0	1	4.325614890725774E+002	7.7081457E-002	7.6971479E-002	8.095452869964796E-004	2.000000000000000E+000	-2.3726295E-006	6.2311898E-008
2	0	0	0	1	4.325634890725269E+002	7.2083369E-002	7.1959935E-002	3.487085982764406E-004	2.000000000000000E+000	-2.3715215E-006	2.5093048E-008
2	0	0	0	1	4.325654890724763E+002	6.7085274E-002	6.6961959E-002	-2.701242282758689E-005	2.000000000000000E+000	-2.3712398E-006	1.8088048E-009
2	0	0	0	1	4.325674890724258E+002	6.2087189E-002	6.1993234E-002	-3.488501850104811E-004	2.000000000000000E+000	-2.3716502E-006	2.1626350E-008
2	0	0	0	1	4.325694890723753E+002	5.7089094E-002	5.6987625E-002	-6.546691519259979E-004	2.000000000000000E+000	-2.3726855E-006	3.7308041E-008
2	0	0	0	1	4.325714890723248E+002	5.2090999E-002	5.1984344E-002	-9.313322342323867E-004	2.000000000000000E+000	-2.3743023E-006	4.8414694E-008
2	0	0	0	1	4.325734890722742E+002	4.7092911E-002	4.6979800E-002	-1.180216710268824E-003	2.000000000000000E+000	-2.3764421E-006	5.5446346E-008
2	0	0	0	1	4.325754890722237E+002	4.2002257E-002	4.1845102E-002	-1.471542530528800E-003	2.000000000000000E+000	-2.3791192E-006	6.1576849E-008
2	0	0	0	1	4.325774890721732E+002	3.6930121E-002	3.6792014E-002	-1.674044582639707E-003	2.000000000000000E+000	-2.3822881E-006	6.1591471E-008
2	0	0	0	1	4.325794890721227E+002	3.1932030E-002	3.1789377E-002	-1.855823753304418E-003	2.000000000000000E+000	-2.3858327E-006	5.8995482E-008
2	0	0	0	1	4.325814890720721E+002	2.6933936E-002	2.6795849E-002	-2.037136995997772E-003	2.000000000000000E+000	-2.3897426E-006	5.4586817E-008
2	0	0	0	1	4.325834890720216E+002	2.1935845E-002	2.1803593E-002	-2.218429095440420E-003	2.000000000000000E+000	-2.3940174E-006	4.8369724E-008
2	0	0	0	1	4.325854890719711E+002	1.6937753E-002	1.6807102E-002	-2.387092487576101E-003	2.000000000000000E+000	-2.3986397E-006	4.0120106E-008
2	0	0	0	1	4.325874890719206E+002	1.1939661E-002	1.1809972E-002	-2.563553492867257E-003	2.000000000000000E+000	-2.4036081E-006	3.0275494E-008
2	0	0	0	1	4.325894890718700E+002	6.9415686E-003	6.7888903E-003	-2.728932469785325E-003	2.000000000000000E+000	-2.4089193E-006	1.8526423E-008
2	0	0	0	1	4.325914890718195E+002	1.9434764E-003	1.7758636E-003	-2.893824245196207E-003	2.000000000000000E+000	-2.4145572E-006	5.1390372E-009
2	0	0	0	1	4.325934890717690E+002	-3.0546170E-003	-3.2371639E-003	-3.046808004203025E-003	2.000000000000000E+000	-2.4205158E-006	9.8630171E-009
2	0	0	0	1	4.325954890717185E+002	-8.0527114E-003	-8.2446821E-003	-3.189536140628960E-003	2.000000000000000E+000	-2.4267658E-006	2.6296712E-008
2	0	0	0	1	4.325974890716680E+002	-1.3050807E-002	-1.3230155E-002	-3.332561002935087E-003	2.000000000000000E+000	-2.4333028E-006	4.4090299E-008
2	0	0	0	1	4.325994890716174E+002	-1.8048901E-002	-1.8220717E-002	-3.470161629542813E-003	2.000000000000000E+000	-2.4401172E-006	6.3228832E-008
2	0	0	0	1	4.326014890715669E+002	-2.3046995E-002	-2.3204705E-002	-3.598036303477173E-003	2.000000000000000E+000	-2.4471960E-006	8.3491372E-008
2	0	0	0	1	4.326034890715164E+002	-2.8045088E-002	-2.8197600E-002	-3.725148373733743E-003	2.000000000000000E+000	-2.4545332E-006	1.0504024E-007
2	0	0	0	1	4.326054890714659E+002	-3.3043183E-002	-3.3223134E-002	-3.874699516270792E-003	2.000000000000000E+000	-2.4621472E-006	1.2872965E-007
2	0	0	0	1	4.326074890714153E+002	-3.8041279E-002	-3.8194403E-002	-3.998357722341292E-003	2.000000000000000E+000	-2.4700346E-006	1.5271489E-007
2	0	0	0	1	4.326094890713648E+002	-4.3039370E-002	-4.3236051E-002	-4.136848140155455E-003	2.000000000000000E+000	-2.4781834E-006	1.7886097E-007
2	0	0	0	1	4.326114890713143E+002	-4.8037469E-002	-4.8221517E-002	-4.247581511663157E-003	2.000000000000000E+000	-2.4865790E-006	2.0482483E-007
2	0	0	0	1	4.326134890712638E+002	-5.3035565E-002	-5.3233493E-002	-4.386601273785734E-003	2.000000000000000E+000	-2.4952258E-006	2.3351411E-007
2	0	0	0	1	4.326154890712132E+002	-5.8033653E-002	-5.8203276E-002	-4.502970860357891E-003	2.000000000000000E+000	-2.5041252E-006	2.6208767E-007
2	0	0	0	1	4.326174890711627E+002	-6.3031748E-002	-6.3204862E-002	-4.612792941467575E-003	2.000000000000000E+000	-2.5132542E-006	2.9155095E-007
2	0	0	0	1	4.326194890711122E+002	-6.8029851E-002	-6.8193726E-002	-4.731195950272288E-003	2.000000000000000E+000	-2.5226086E-006	3.2263787E-007
2	0	0	0	1	4.326214890710617E+002	-7.3027939E-002	-7.3205911E-002	-4.851972900319718E-003	2.000000000000000E+000	-2.5322081E-006	3.5519309E-007
2	0	0	0	1	4.326234890710111E+002	-7.8026034E-002	-7.8204311E-002	-4.967388700000207E-003	2.000000000000000E+000	-2.5420336E-006	3.8847122E-007
2	0	0	0	1	4.326254890709606E+002	-8.3024137E-002	-8.3200172E-002	-5.083016413563096E-003	2.000000000000000E+000	-2.5520972E-006	4.2290785E-007
2	0	0	0	1	4.326274890709101E+002	-8.8022225E-002	-8.8185646E-002	-5.190464898482294E-003	2.000000000000000E+000	-2.5623794E-006	4.5772450E-007
2	0	0	0	1	4.326294890708596E+002	-9.3020320E-002	-9.3184039E-002	-5.303380622838923E-003	2.000000000000000E+000	-2.5728823E-006	4.9419043E-007
2	0	0	0	1	4.326314890708090E+002	-9.8018415E-002	-9.8164007E-002	-5.421020910034713E-003	2.000000000000000E+000	-2.5836180E-006	5.3214916E-007
2	0	0	0	1	4.326334890707585E+002	-1.0301651E-001	-1.0318021E-001	-5.536563886986784E-003	2.000000000000000E+000	-2.5945865E-006	5.7126380E-007
2	0	0	0	1	4.326354890707080E+002	-1.0801459E-001	-1.0816335E-001	-5.634265678660683E-003	2.000000000000000E+000	-2.6057694E-006	6.0942102E-007
2	0	0	0	1	4.326374890706575E+002	-1.1301269E-001	-1.1315709E-001	-5.739617075455006E-003	2.000000000000000E+000	-2.6171551E-006	6.4947841E-007
2	0	0	0	1	4.326394890706069E+002	-1.1801079E-001	-1.1815973E-001	-5.866580797980234E-003	2.000000000000000E+000	-2.6287771E-006	6.9319361E-007
2	0	0	0	1	4.326414890705564E+002	-1.2300888E-001	-1.2316386E-001	-5.970151758649289E-003	2.000000000000000E+000	-2.6406290E-006	7.3530697E-007
2	0	0	0	1	4.326434890705059E+002	-1.2800698E-001	-1.2817563E-001	-6.092114816864414E-003	2.000000000000000E+000	-2.6526975E-006	7.8086066E-007
2	0	0	0	1	4.326454890704554E+002	-1.3300508E-001	-1.3317339E-001	-6.198419600372665E-003	2.000000000000000E+000	-2.6650002E-006	8.2546455E-007
2	0	0	0	1	4.326474890704048E+002	-1.3800317E-001	-1.3817392E-001	-6.304935779654547E-003	2.000000000000000E+000	-2.6775124E-006	8.7117769E-007
2	0	0	0	1	4.326494890703543E+002	-1.4300126E-001	-1.4317824E-001	-6.418338703648857E-003	2.000000000000000E+000	-2.6902467E-006	9.1896646E-007
2	0	0	0	1	4.326514890703038E+002	-1.4799935E-001	-1.4818154E-001	-6.516464396958702E-003	2.000000000000000E+000	-2.7031938E-006	9.6561973E-007
2	0	0	0	1	4.326534890702533E+002	-1.5299745E-001	-1.5317358E-001	-6.632452557520693E-003	2.000000000000000E+000	-2.7163549E-006	1.0159165E-006
2	0	0	0	1	4.326554890702027E+002	-1.5799555E-001	-1.5817770E-001	-6.739562015152648E-003	2.000000000000000E+000	-2.7297365E-006	1.0660484E-006
2	0	0	0	1	4.326574890701522E+002	-1.6299365E-001	-1.6316868E-001	-6.849553528101945E-003	2.000000000000000E+000	-2.7433346E-006	1.1176327E-006
2	0	0	0	1	4.326594890701017E+002	-1.6799173E-001	-1.6817725E-001	-6.953273123751033E-003	2.000000000000000E+000	-2.7571468E-006	1.1693824E-006
2	0	0	0	1	4.326614890700512E+002	-1.7298983E-001	-1.7318074E-001	-7.075214974570893E-003	2.000000000000000E+000	-2.7711860E-006	1.2252910E-006
2	0	0	0	1	4.326634890700007E+002	-1.7798793E-001	-1.7817068E-001	-7.172387148077372E-003	2.000000000000000E+000	-2.7854412E-006	1.2779091E-006
2	0	0	0	1	4.326654890699501E+002	-1.8298602E-001	-1.8318455E-001	-7.307529754547820E-003	2.000000000000000E+000	-2.7999347E-006	1.3386266E-006
2	0	0	0	1	4.326674890698996E+002	-1.8798412E-001	-1.8817087E-001	-7.413834195681895E-003	2.000000000000000E+000	-2.8146640E-006	1.3950676E-006
2	0	0	0	1	4.326694890698491E+002	-1.9298220E-001	-1.9314298E-001	-7.527978375542782E-003	2.000000000000000E+000	-2.8296156E-006	1.4539762E-006
2	0	0	0	1	4.326714890697986E+002	-1.9798030E-001	-1.9813122E-001	-7.642059437785051E-003	2.000000000000000E+000	-2.8447985E-006	1.5141305E-006
2	0	0	0	1	4.326734890697480E+002	-2.0297839E-001	-2.0316480E-001	-7.782457008336963E-003	2.000000000000000E+000	-2.8602378E-006	1.5811213E-006
2	0	0	0	1	4.326754890696975E+002	-2.0797649E-001	-2.0813248E-001	-7.897554914254397E-003	2.000000000000000E+000	-2.8759273E-006	1.6437376E-006
2	0	0	0	1	4.326774890696470E+002	-2.1297459E-001	-2.1316332E-001	-8.023416640955664E-003	2.000000000000000E+000	-2.8918594E-006	1.7102981E-006
2	0	0	0	1	4.326794890695965E+002	-2.1797268E-001	-2.1816362E-001	-8.152754166985687E-003	2.000000000000000E+000	-2.9080513E-006	1.7786344E-006
2	0	0	0	1	4.326814890695459E+002	-2.2297078E-001	-2.2317836E-001	-8.272089760288925E-003	2.000000000000000E+000	-2.9244866E-006	1.8461513E-006
2	0	0	0	1	4.326834890694954E+002	-2.2796887E-001	-2.2817039E-001	-8.394963930489524E-003	2.000000000000000E+000	-2.9411633E-006	1.9154822E-006
2	0	0	0	1	4.326854890694449E+002	-2.3296696E-001	-2.3316479E-001	-8.515231766270726E-003	2.000000000000000E+000	-2.9580820E-006	1.9854522E-006
2	0	0	0	1	4.326874890693944E+002	-2.3796506E-001	-2.3815660E-001	-8.631685588119969E-003	2.000000000000000E+000	-2.9752409E-006	2.0556929E-006
2	0	0	0	1	4.326894890693438E+002	-2.4296317E-001	-2.4315077E-001	-8.751381447331757E-003	2.000000000000000E+000	-2.9926371E-006	2.1279052E-006
2	0	0	0	1	4.326914890692933E+002	-2.4796124E-001	-2.4814810E-001	-8.887499083054307E-003	2.000000000000000E+000	-3.0102888E-006	2.2054160E-006
2	0	0	0	1	4.326934890692428E+002	-2.5295934E-001	-2.5314909E-001	-9.009228824450266E-003	2.000000000000000E+000	-3.0281956E-006	2.2806780E-006
2	0	0	0	1	4.326954890691923E+002	-2.5795743E-001	-2.5813302E-001	-9.115808764363437E-003	2.000000000000000E+000	-3.0463334E-006	2.3530913E-006
2	0	0	0	1	4.326974890691417E+002	-2.6295552E-001	-2.6311979E-001	-9.235992930270089E-003	2.000000000000000E+000	-3.0646961E-006	2.4301726E-006
2	0	0	0	1	4.326994890690912E+002	-2.6795363E-001	-2.6812837E-001	-9.362363124839429E-003	2.000000000000000E+000	-3.0833050E-006	2.5103152E-006
2	0	0	0	1	4.327014890690407E+002	-2.7295175E-001	-2.7311957E-001	-9.468391629727374E-003	2.000000000000000E+000	-3.1021507E-006	2.5860031E-006
2	0	0	0	1	4.327034890689902E+002	-2.7794981E-001	-2.7811879E-001	-9.565204135368627E-003	2.000000000000000E+000	-3.1211950E-006	2.6602629E-006
2	0	0	0	1	4.327054890689396E+002	-2.8294790E-001	-2.8310111E-001	-9.678798032230929E-003	2.000000000000000E+000	-3.1404527E-006	2.7400786E-006
2	0	0	0	1	4.327074890688891E+002	-2.8794599E-001	-2.8810844E-001	-9.783364511248616E-003	2.000000000000000E+000	-3.1599252E-006	2.8186698E-006
2	0	0	0	1	4.327094890688386E+002	-2.9294410E-001	-2.9311213E-001	-9.900560683187606E-003	2.000000000000000E+000	-3.1796239E-006	2.9019743E-006
2	0	0	0	1	4.327114890687881E+002	-2.9794219E-001	-2.9812321E-001	-1.002739692477111E-002	2.000000000000000E+000	-3.1995628E-006	2.9893997E-006
2	0	0	0	1	4.327134890687375E+002	-3.0294025E-001	-3.0314621E-001	-1.012675177904991E-002	2.000000000000000E+000	-3.2197274E-006	3.0698864E-006
2	0	0	0	1	4.327154890686870E+002	-3.0793840E-001	-3.0812705E-001	-1.021589329037746E-002	2.000000000000000E+000	-3.2400735E-006	3.1477930E-006
2	0	0	0	1	4.327174890686365E+002	-3.1293648E-001	-3.1314367E-001	-1.032404111255245E-002	2.000000000000000E+000	-3.2606206E-006	3.2329081E-006
2	0	0	0	1	4.327194890685860E+002	-3.1793454E-001	-3.1812152E-001	-1.042723112429182E-002	2.000000000000000E+000	-3.2813805E-006	3.3171266E-006
2	0	0	0	1	4.327214890685354E+002	-3.2293269E-001	-3.2311401E-001	-1.049755713170775E-002	2.000000000000000E+000	-3.3023171E-006	3.3919077E-006
2	0	0	0	1	4.327234890684849E+002	-3.2793075E-001	-3.2810432E-001	-1.060233587627912E-002	2.000000000000000E+000	-3.3234230E-006	3.4786722E-006
2	0	0	0	1	4.327254890684344E+002	-3.3292884E-001	-3.3311397E-001	-1.070866157796346E-002	2.000000000000000E+000	-3.3447454E-006	3.5672047E-006
2	0	0	0	1	4.327274890683839E+002	-3.3792698E-001	-3.3812574E-001	-1.080695683514124E-002	2.000000000000000E+000	-3.3662707E-006	3.6541103E-006
2	0	0	0	1	4.327294890683334E+002	-3.4292504E-001	-3.4315550E-001	-1.092338947172619E-002	2.000000000000000E+000	-3.3880142E-006	3.7484212E-006
2	0	0	0	1	4.327314890682828E+002	-3.4792310E-001	-3.4813884E-001	-1.101428980392585E-002	2.000000000000000E+000	-3.4099594E-006	3.8345020E-006
2	0	0	0	1	4.327334890682323E+002	-3.5292125E-001	-3.5315931E-001	-1.111995854282419E-002	2.000000000000000E+000	-3.4321024E-006	3.9271167E-006
2	0	0	0	1	4.327354890681818E+002	-3.5791934E-001	-3.5814795E-001	-1.119295412859676E-002	2.000000000000000E+000	-3.4544230E-006	4.0087334E-006
2	0	0	0	1	4.327374890681313E+002	-3.6291739E-001	-3.6312747E-001	-1.128150211196849E-002	2.000000000000000E+000	-3.4769080E-006	4.0966233E-006
2	0	0	0	1	4.327394890680807E+002	-3.6791554E-001	-3.6811572E-001	-1.136810134246644E-002	2.000000000000000E+000	-3.4995630E-006	4.1847770E-006
2	0	0	0	1	4.327414890680302E+002	-3.7291363E-001	-3.7312895E-001	-1.147974582595952E-002	2.000000000000000E+000	-3.5224239E-006	4.2834254E-006
2	0	0	0	1	4.327434890679797E+002	-3.7791169E-001	-3.7811589E-001	-1.160189975659402E-002	2.000000000000000E+000	-3.5455171E-006	4.3868627E-006
2	0	0	0	1	4.327454890679292E+002	-3.8290983E-001	-3.8313660E-001	-1.169337194834141E-002	2.000000000000000E+000	-3.5688201E-006	4.4801586E-006
2	0	0	0	1	4.327474890678786E+002	-3.8790792E-001	-3.8813245E-001	-1.180933839087733E-002	2.000000000000000E+000	-3.5923331E-006	4.5835873E-006
2	0	0	0	1	4.327494890678281E+002	-3.9290598E-001	-3.9314249E-001	-1.191426549727717E-002	2.000000000000000E+000	-3.6160716E-006	4.6840041E-006
2	0	0	0	1	4.327514890677776E+002	-3.9807069E-001	-3.9829883E-001	-1.208566280466686E-002	2.000000000000000E+000	-3.6401050E-006	4.8137053E-006
2	0	0	0	1	4.327534890677271E+002	-4.0306875E-001	-4.0329382E-001	-1.215160273629106E-002	2.000000000000000E+000	-3.6643451E-006	4.9006662E-006
2	0	0	0	1	4.327554890676765E+002	-4.0806687E-001	-4.0828800E-001	-1.225032146976446E-002	2.000000000000000E+000	-3.6887559E-006	5.0016592E-006
2	0	0	0	1	4.327574890676260E+002	-4.1306499E-001	-4.1327682E-001	-1.236696584520464E-002	2.000000000000000E+000	-3.7133823E-006	5.1109805E-006
2	0	0	0	1	4.327594890675755E+002	-4.1806307E-001	-4.1829139E-001	-1.252370021373073E-002	2.000000000000000E+000	-3.7382881E-006	5.2385558E-006
2	0	0	0	1	4.327614890675250E+002	-4.2306116E-001	-4.2327052E-001	-1.261688900497876E-002	2.000000000000000E+000	-3.7634393E-006	5.3403573E-006
2	0	0	0	1	4.327634890674744E+002	-4.2805928E-001	-4.2827311E-001	-1.272772844681136E-002	2.000000000000000E+000	-3.7887964E-006	5.4509437E-006
2	0	0	0	1	4.327654890674239E+002	-4.3305737E-001	-4.3326747E-001	-1.284138438151988E-002	2.000000000000000E+000	-3.8143803E-006	5.5637543E-006
2	0	0	0	1	4.327674890673734E+002	-4.3805543E-001	-4.3827078E-001	-1.294917284414826E-002	2.000000000000000E+000	-3.8401809E-006	5.6752442E-006
2	0	0	0	1	4.327694890673229E+002	-4.4305354E-001	-4.4326428E-001	-1.310999575980533E-002	2.000000000000000E+000	-3.8662511E-006	5.8111928E-006
2	0	0	0	1	4.327714890672723E+002	-4.4805160E-001	-4.4825640E-001	-1.322606906109686E-002	2.000000000000000E+000	-3.8925969E-006	5.9286704E-006
2	0	0	0	1	4.327734890672218E+002	-4.5304969E-001	-4.5323229E-001	-1.334856179225124E-002	2.000000000000000E+000	-3.9191877E-006	6.0499992E-006
2	0	0	0	1	4.327754890671713E+002	-4.5804781E-001	-4.5823744E-001	-1.349201066619166E-002	2.000000000000000E+000	-3.9460419E-006	6.1825444E-006
2	0	0	0	1	4.327774890671208E+002	-4.6304590E-001	-4.6323758E-001	-1.366330089432369E-002	2.000000000000000E+000	-3.9732095E-006	6.3293546E-006
2	0	0	0	1	4.327794890670702E+002	-4.6804398E-001	-4.6826816E-001	-1.384469935227470E-002	2.000000000000000E+000	-4.0007421E-006	6.4830319E-006
2	0	0	0	1	4.327814890670197E+002	-4.7304210E-001	-4.7326258E-001	-1.397310364134480E-002	2.000000000000000E+000	-4.0285722E-006	6.6129469E-006
2	0	0	0	1	4.327834890669692E+002	-4.7804019E-001	-4.7825289E-001	-1.413852482841724E-002	2.000000000000000E+000	-4.0567002E-006	6.7617902E-006
2	0	0	0	1	4.327854890669187E+002	-4.8303828E-001	-4.8326758E-001	-1.430854470971905E-002	2.000000000000000E+000	-4.0851610E-006	6.9148559E-006
2	0	0	0	1	4.327874890668681E+002	-4.8803639E-001	-4.8824674E-001	-1.444574209765251E-002	2.000000000000000E+000	-4.1139333E-006	7.0530864E-006
2	0	0	0	1	4.327894890668176E+002	-4.9303448E-001	-4.9325362E-001	-1.461029569064626E-002	2.000000000000000E+000	-4.1429998E-006	7.2065814E-006
2	0	0	0	1	4.327914890667671E+002	-4.9803257E-001	-4.9826434E-001	-1.479423612969793E-002	2.000000000000000E+000	-4.1724202E-006	7.3714405E-006
2	0	0	0	1	4.327934890667166E+002	-5.0303072E-001	-5.0326169E-001	-1.495219939048786E-002	2.000000000000000E+000	-4.2021852E-006	7.5248690E-006
2	0	0	0	1	4.327954890666661E+002	-5.0802875E-001	-5.0824565E-001	-1.513302464829597E-002	2.000000000000000E+000	-4.2322854E-006	7.6912938E-006
2	0	0	0	1	4.327974890666155E+002	-5.1302683E-001	-5.1324385E-001	-1.531694384498725E-002	2.000000000000000E+000	-4.2627562E-006	7.8613275E-006
2	0	0	0	1	4.327994890665650E+002	-5.1802492E-001	-5.1824117E-001	-1.552099219427161E-002	2.000000000000000E+000	-4.2936158E-006	8.0436175E-006
2	0	0	0	1	4.328014890665145E+002	-5.2302307E-001	-5.2324975E-001	-1.570023038705885E-002	2.000000000000000E+000	-4.3248533E-006	8.2151419E-006
2	0	0	0	1	4.328034890664640E+002	-5.2802110E-001	-5.2823907E-001	-1.589866331010442E-002	2.000000000000000E+000	-4.3564696E-006	8.3982950E-006
2	0	0	0	1	4.328054890664134E+002	-5.3301919E-001	-5.3322518E-001	-1.608851557789928E-002	2.000000000000000E+000	-4.3884779E-006	8.5788015E-006
2	0	0	0	1	4.328074890663629E+002	-5.3801733E-001	-5.3822017E-001	-1.630423930954644E-002	2.000000000000000E+000	-4.4208900E-006	8.7752705E-006
2	0	0	0	1	4.328094890663124E+002	-5.4301548E-001	-5.4321295E-001	-1.650140232252142E-002	2.000000000000000E+000	-4.4537160E-006	8.9637751E-006
2	0	0	0	1	4.328114890662619E+002	-5.4801357E-001	-5.4822701E-001	-1.669229356735333E-002	2.000000000000000E+000	-4.4869262E-006	9.1511665E-006
2	0	0	0	1	4.328134890662113E+002	-5.5301160E-001	-5.5323893E-001	-1.693977975567881E-002	2.000000000000000E+000	-4.5205825E-006	9.3717454E-006
2	0	0	0	1	4.328154890661608E+002	-5.5800968E-001	-5.5824292E-001	-1.716671180393950E-002	2.000000000000000E+000	-4.5547135E-006	9.5831956E-006
2	0	0	0	1	4.328174890661103E+002	-5.6300777E-001	-5.6322128E-001	-1.740836950011720E-002	2.000000000000000E+000	-4.5893103E-006	9.8047640E-006
2	0	0	0	1	4.328194890660598E+002	-5.6800592E-001	-5.6822604E-001	-1.766742522259951E-002	2.000000000000000E+000	-4.6244140E-006	1.0039091E-005
2	0	0	0	1	4.328214890660092E+002	-5.7300401E-001	-5.7321811E-001	-1.793595302236400E-002	2.000000000000000E+000	-4.6600439E-006	1.0281213E-005
2	0	0	0	1	4.328234890659587E+002	-5.7800210E-001	-5.7822520E-001	-1.812838857202015E-002	2.000000000000000E+000	-4.6961272E-006	1.0482291E-005
2	0	0	0	1	4.328254890659082E+002	-5.8300018E-001	-5.8320409E-001	-1.838329077994179E-002	2.000000000000000E+000	-4.7326557E-006	1.0721210E-005
2	0	0	0	1	4.328274890658577E+002	-5.8799827E-001	-5.8821183E-001	-1.868355918062053E-002	2.000000000000000E+000	-4.7697590E-006	1.0989891E-005
2	0	0	0	1	4.328294890658071E+002	-5.9299636E-001	-5.9322131E-001	-1.891201731187824E-002	2.000000000000000E+000	-4.8073798E-006	1.1219012E-005
2	0	0	0	1	4.328312890657617E+002	-5.9749466E-001	-5.9769720E-001	-1.917559150881848E-002	2.000000000000000E+000	-4.8416587E-006	1.1461198E-005
2	0	0	0	1	4.328321890657389E+002	-5.9982693E-001	-5.9999305E-001	-1.938791945576668E-002	2.000000000000000E+000	-4.8589663E-006	1.1632617E-005
2	0	0	1	1	4.328323890657339E+002	-6.0016018E-001	-6.0037845E-001	-1.928684860467911E-002	2.000000000000000E+000	-4.8628240E-006	1.1579408E-005