EC-Lab ASCII FILE
Nb header lines : 53                          

Cyclic Voltammetry

Run on channel : 1 (SN 0696)
User : 
Electrode connection : standard
Ewe ctrl range : min = -10.00 V, max = 10.00 V
Ewe,I filtering : 50 kHz
Channel : Grounded
Acquisition started on : 05/17/2017 13:04:41
Saved on :
	File : 100 uM RS 10mM SHU_01_CV_C01.mpr
	Directory : \\userfs\st659\w2k\EC-Lab\Data\ITO Characterisation 17-5-17\
	Host : 144.32.136.43
Device : SP-300 (SN 0182)
Address : USB
EC-Lab for windows v10.44 (software)
Internet server v10.44 (firmware)
Command interpretor v10.44 (firmware)
Electrode material : 
Initial state : 
Electrolyte : 
Comments : 
Cable : standard
Electrode surface area : 0.001 cm²
Characteristic mass : 0.001 g
Equivalent Weight : 0.000 g/eq.
Density : 0.000 g/cm3
Ei (V)              0.000               
vs.                 Eoc                 
dE/dt               20.000              
dE/dt unit          mV/s                
E1 (V)              0.100               
vs.                 Ref                 
Step percent        50                  
N                   10                  
E range min (V)     -10.000             
E range max (V)     10.000              
I Range             Auto                
I Range min         Unset               
I Range max         Unset               
I Range init        Unset               
Bandwidth           8                   
E2 (V)              -0.600              
vs.                 Ref                 
nc cycles           2                   
Reverse Scan        1                   
Ef (V)              0.000               
vs.                 Eoc                 

mode	ox/red	error	control changes	counter inc.	time/s	control/V	Ewe/V	<I>/mA	cycle number	(Q-Qo)/C	P/W
2	1	0	0	1	5.391359863802791E+001	-5.9982693E-001	-6.0001218E-001	-1.015555579215288E-002	2.000000000000000E+000	-2.0216692E-004	6.0934572E-006
2	1	0	0	1	5.400529863571137E+001	-5.9799486E-001	-5.9819579E-001	-9.919730259687648E-003	2.000000000000000E+000	-2.0307564E-004	5.9339409E-006
2	1	0	1	1	5.417189863150270E+001	-5.9466279E-001	-5.9487844E-001	-9.588762487054370E-003	2.000000000000000E+000	-2.0469302E-004	5.7041480E-006
2	1	0	0	1	5.433849862729403E+001	-5.9133071E-001	-5.9154624E-001	-9.316894204817634E-003	2.000000000000000E+000	-2.0626039E-004	5.5113737E-006
2	1	0	1	1	5.450509862308536E+001	-5.8799863E-001	-5.8821481E-001	-9.070337921864610E-003	2.000000000000000E+000	-2.0778482E-004	5.3353069E-006
2	1	0	0	1	5.467179861887416E+001	-5.8466488E-001	-5.8488327E-001	-8.854483130912083E-003	2.000000000000000E+000	-2.0927178E-004	5.1788393E-006
2	1	0	1	1	5.483839861466549E+001	-5.8133286E-001	-5.8153862E-001	-8.653879972063946E-003	2.000000000000000E+000	-2.1072330E-004	5.0325652E-006
2	1	0	0	1	5.500499861045682E+001	-5.7800072E-001	-5.7823366E-001	-8.467089083231072E-003	2.000000000000000E+000	-2.1214268E-004	4.8959560E-006
2	1	0	1	1	5.517159860624815E+001	-5.7466871E-001	-5.7490873E-001	-8.293017716576843E-003	2.000000000000000E+000	-2.1353208E-004	4.7677281E-006
2	1	0	0	1	5.533819860203948E+001	-5.7133663E-001	-5.7156223E-001	-8.128978626103622E-003	2.000000000000000E+000	-2.1489330E-004	4.6462173E-006
2	1	0	1	1	5.550479859783081E+001	-5.6800455E-001	-5.6825066E-001	-7.971002940793073E-003	2.000000000000000E+000	-2.1622765E-004	4.5295278E-006
2	1	0	0	1	5.567139859362214E+001	-5.6467247E-001	-5.6489712E-001	-7.822944544730065E-003	2.000000000000000E+000	-2.1753661E-004	4.4191588E-006
2	1	0	1	1	5.583799858941347E+001	-5.6134087E-001	-5.6155288E-001	-7.677743890666749E-003	2.000000000000000E+000	-2.1882112E-004	4.3114592E-006
2	1	0	0	1	5.600459858520480E+001	-5.5800873E-001	-5.5822355E-001	-7.543740853764296E-003	2.000000000000000E+000	-2.2008255E-004	4.2110937E-006
2	1	0	1	1	5.617119858099613E+001	-5.5467683E-001	-5.5491066E-001	-7.412360505329420E-003	2.000000000000000E+000	-2.2132188E-004	4.1131980E-006
2	1	0	0	1	5.633779857678746E+001	-5.5134469E-001	-5.5156010E-001	-7.288594156774769E-003	2.000000000000000E+000	-2.2253989E-004	4.0200975E-006
2	1	0	1	1	5.650439857257879E+001	-5.4801261E-001	-5.4821897E-001	-7.165478913862322E-003	2.000000000000000E+000	-2.2373738E-004	3.9282513E-006
2	1	0	0	1	5.667099856837012E+001	-5.4468054E-001	-5.4489362E-001	-7.050873408652070E-003	2.000000000000000E+000	-2.2491514E-004	3.8419757E-006
2	1	0	1	1	5.683759856416145E+001	-5.4134852E-001	-5.4154074E-001	-6.934829293271189E-003	2.000000000000000E+000	-2.2607374E-004	3.7554926E-006
2	1	0	0	1	5.700419855995278E+001	-5.3801686E-001	-5.3821599E-001	-6.824645867573947E-003	2.000000000000000E+000	-2.2721352E-004	3.6731335E-006
2	1	0	1	1	5.717079855574411E+001	-5.3468484E-001	-5.3489399E-001	-6.718510397749809E-003	2.000000000000000E+000	-2.2833534E-004	3.5936907E-006
2	1	0	0	1	5.733739855153544E+001	-5.3135276E-001	-5.3157097E-001	-6.616002655096084E-003	2.000000000000000E+000	-2.2943965E-004	3.5168750E-006
2	1	0	1	1	5.750399854732677E+001	-5.2802074E-001	-5.2823085E-001	-6.514099880303531E-003	2.000000000000000E+000	-2.3052690E-004	3.4409486E-006
2	1	0	0	1	5.767059854311810E+001	-5.2468860E-001	-5.2492076E-001	-6.413617678072251E-003	2.000000000000000E+000	-2.3159741E-004	3.3666411E-006
2	1	0	1	1	5.783719853890943E+001	-5.2135700E-001	-5.2157295E-001	-6.318280467940824E-003	2.000000000000000E+000	-2.3265174E-004	3.2954442E-006
2	1	0	0	1	5.800379853470076E+001	-5.1802492E-001	-5.1824397E-001	-6.224794223419983E-003	2.000000000000000E+000	-2.3369034E-004	3.2259620E-006
2	1	0	1	1	5.817039853049209E+001	-5.1469290E-001	-5.1492018E-001	-6.130518826831747E-003	2.000000000000000E+000	-2.3471321E-004	3.1567279E-006
2	1	0	0	1	5.833699852628342E+001	-5.1136082E-001	-5.1159674E-001	-6.039661543745092E-003	2.000000000000000E+000	-2.3572084E-004	3.0898711E-006
2	1	0	1	1	5.850359852207475E+001	-5.0802875E-001	-5.0824606E-001	-5.949984863277351E-003	2.000000000000000E+000	-2.3671333E-004	3.0240565E-006
2	1	0	0	1	5.867019851786608E+001	-5.0469673E-001	-5.0490010E-001	-5.863795802226263E-003	2.000000000000000E+000	-2.3769107E-004	2.9606310E-006
2	1	0	1	1	5.883679851365741E+001	-5.0136465E-001	-5.0157803E-001	-5.776602158462707E-003	2.000000000000000E+000	-2.3865452E-004	2.8974168E-006
2	1	0	0	1	5.900339850944874E+001	-4.9803302E-001	-4.9822810E-001	-5.692324634913683E-003	2.000000000000000E+000	-2.3960376E-004	2.8360762E-006
2	1	0	1	1	5.916999850524007E+001	-4.9470097E-001	-4.9488413E-001	-5.609954269655324E-003	2.000000000000000E+000	-2.4053901E-004	2.7762774E-006
2	1	0	0	1	5.933659850103140E+001	-4.9136892E-001	-4.9156743E-001	-5.526755348394294E-003	2.000000000000000E+000	-2.4146054E-004	2.7167730E-006
2	1	0	1	1	5.950319849682273E+001	-4.8803681E-001	-4.8826548E-001	-5.447082117927791E-003	2.000000000000000E+000	-2.4236865E-004	2.6596222E-006
2	1	0	0	1	5.966979849261406E+001	-4.8470482E-001	-4.8492977E-001	-5.369129963657973E-003	2.000000000000000E+000	-2.4326351E-004	2.6036510E-006
2	1	0	1	1	5.983639848840539E+001	-4.8137271E-001	-4.8158363E-001	-5.291172490262591E-003	2.000000000000000E+000	-2.4414537E-004	2.5481420E-006
2	1	0	0	1	6.000299848419672E+001	-4.7804111E-001	-4.7826165E-001	-5.212765588974308E-003	2.000000000000000E+000	-2.4501409E-004	2.4930659E-006
2	1	0	1	1	6.016959847998805E+001	-4.7470900E-001	-4.7491580E-001	-5.133999168077677E-003	2.000000000000000E+000	-2.4586971E-004	2.4382173E-006
2	1	0	0	1	6.033619847577938E+001	-4.7137696E-001	-4.7160566E-001	-5.059146259668620E-003	2.000000000000000E+000	-2.4671271E-004	2.3859220E-006
2	1	0	1	1	6.050279847157071E+001	-4.6804488E-001	-4.6826318E-001	-4.983975006435916E-003	2.000000000000000E+000	-2.4754333E-004	2.3338121E-006
2	1	0	0	1	6.066939846736204E+001	-4.6471283E-001	-4.6490833E-001	-4.911997037180593E-003	2.000000000000000E+000	-2.4836158E-004	2.2836284E-006
2	1	0	1	1	6.086099846252182E+001	-4.6088073E-001	-4.6110445E-001	-4.832876442042222E-003	2.000000000000000E+000	-2.4928764E-004	2.2284607E-006
2	1	0	0	1	6.105259845768160E+001	-4.5704859E-001	-4.5725885E-001	-4.764639124211253E-003	2.000000000000000E+000	-2.5020147E-004	2.1786734E-006
2	1	0	1	1	6.121919845347293E+001	-4.5371699E-001	-4.5390084E-001	-4.692923888484871E-003	2.000000000000000E+000	-2.5098317E-004	2.1301221E-006
2	1	0	0	1	6.138579844926426E+001	-4.5038494E-001	-4.5059311E-001	-4.622415815510428E-003	2.000000000000000E+000	-2.5175302E-004	2.0828288E-006
2	1	0	1	1	6.155239844505559E+001	-4.4705290E-001	-4.4725716E-001	-4.551506219837367E-003	2.000000000000000E+000	-2.5251115E-004	2.0356938E-006
2	1	0	0	1	6.171899844084692E+001	-4.4372082E-001	-4.4392738E-001	-4.482585887839705E-003	2.000000000000000E+000	-2.5325766E-004	1.9899426E-006
2	1	0	1	1	6.188559843663825E+001	-4.4038877E-001	-4.4059843E-001	-4.413895324668016E-003	2.000000000000000E+000	-2.5399274E-004	1.9447552E-006
2	1	0	0	1	6.205219843242958E+001	-4.3705672E-001	-4.3725955E-001	-4.343757313462912E-003	2.000000000000000E+000	-2.5471626E-004	1.8993494E-006
2	1	0	1	1	6.221879842822091E+001	-4.3372512E-001	-4.3389478E-001	-4.275063338025062E-003	2.000000000000000E+000	-2.5542817E-004	1.8549276E-006
2	1	0	0	1	6.238539842401224E+001	-4.3039301E-001	-4.3060273E-001	-4.208233725453234E-003	2.000000000000000E+000	-2.5612884E-004	1.8120769E-006
2	1	0	1	1	6.255199841980357E+001	-4.2706096E-001	-4.2727122E-001	-4.140675886325607E-003	2.000000000000000E+000	-2.5681831E-004	1.7691916E-006
2	1	0	0	1	6.271859841559490E+001	-4.2372891E-001	-4.2396578E-001	-4.074065657404452E-003	2.000000000000000E+000	-2.5749658E-004	1.7272645E-006
2	1	0	1	1	6.288519841138623E+001	-4.2039680E-001	-4.2064512E-001	-4.007555559563624E-003	2.000000000000000E+000	-2.5816372E-004	1.6857587E-006
2	1	0	0	1	6.305179840717756E+001	-4.1706476E-001	-4.1729227E-001	-3.941867386352479E-003	2.000000000000000E+000	-2.5881990E-004	1.6449108E-006
2	1	0	1	1	6.321839840296889E+001	-4.1373271E-001	-4.1395116E-001	-3.877531377768265E-003	2.000000000000000E+000	-2.5946525E-004	1.6051087E-006
2	1	0	1	1	6.338509839875769E+001	-4.1039881E-001	-4.1061553E-001	-3.812106414268122E-003	2.000000000000000E+000	-2.6010012E-004	1.5653101E-006
2	1	0	0	1	6.355169839454902E+001	-4.0706673E-001	-4.0728492E-001	-3.748375753733477E-003	2.000000000000000E+000	-2.6072384E-004	1.5266569E-006
2	1	0	1	1	6.371829839034035E+001	-4.0373471E-001	-4.0397337E-001	-3.682665188364076E-003	2.000000000000000E+000	-2.6133677E-004	1.4876987E-006
2	1	0	0	1	6.388489838613168E+001	-4.0040261E-001	-4.0063229E-001	-3.617948958192327E-003	2.000000000000000E+000	-2.6193881E-004	1.4494672E-006
2	1	0	1	1	6.405149838192301E+001	-3.9707056E-001	-3.9730528E-001	-3.554002574605142E-003	2.000000000000000E+000	-2.6253026E-004	1.4120239E-006
2	1	0	0	1	6.421809837771434E+001	-3.9373851E-001	-3.9396933E-001	-3.490878458682258E-003	2.000000000000000E+000	-2.6311114E-004	1.3752990E-006
2	1	0	1	1	6.438469837350567E+001	-3.9040688E-001	-3.9062193E-001	-3.429180374894439E-003	2.000000000000000E+000	-2.6368158E-004	1.3395130E-006
2	1	0	0	1	6.455129836929700E+001	-3.8707483E-001	-3.8729876E-001	-3.367454930491152E-003	2.000000000000000E+000	-2.6424183E-004	1.3042111E-006
2	1	0	1	1	6.471789836508833E+001	-3.8374281E-001	-3.8397843E-001	-3.307865914168562E-003	2.000000000000000E+000	-2.6479195E-004	1.2701491E-006
2	1	0	0	1	6.488449836087966E+001	-3.8041070E-001	-3.8062564E-001	-3.247567218093887E-003	2.000000000000000E+000	-2.6533200E-004	1.2361073E-006
2	1	0	1	1	6.505109835667099E+001	-3.7707862E-001	-3.7731254E-001	-3.188843836706510E-003	2.000000000000000E+000	-2.6586212E-004	1.2031908E-006
2	1	0	0	1	6.521769835246232E+001	-3.7374657E-001	-3.7396452E-001	-3.128904075554474E-003	2.000000000000000E+000	-2.6638250E-004	1.1700992E-006
2	1	0	1	1	6.538429834825365E+001	-3.7041497E-001	-3.7061712E-001	-3.071953539923136E-003	2.000000000000000E+000	-2.6689318E-004	1.1385185E-006
2	1	0	0	1	6.555089834404498E+001	-3.6708289E-001	-3.6728370E-001	-3.015505767642652E-003	2.000000000000000E+000	-2.6739432E-004	1.1075462E-006
2	1	0	1	1	6.571749833983631E+001	-3.6375085E-001	-3.6395419E-001	-2.958757427872022E-003	2.000000000000000E+000	-2.6788609E-004	1.0768522E-006
2	1	0	0	1	6.588409833562764E+001	-3.6041877E-001	-3.6063793E-001	-2.903570835341214E-003	2.000000000000000E+000	-2.6836855E-004	1.0471377E-006
2	1	0	1	1	6.605069833141897E+001	-3.5708672E-001	-3.5730410E-001	-2.847409018036179E-003	2.000000000000000E+000	-2.6884180E-004	1.0173909E-006
2	1	0	0	1	6.621729832721030E+001	-3.5375464E-001	-3.5397005E-001	-2.793072427631577E-003	2.000000000000000E+000	-2.6930578E-004	9.8866394E-007
2	1	0	1	1	6.638399832299910E+001	-3.5042086E-001	-3.5065567E-001	-2.736586308314824E-003	2.000000000000000E+000	-2.6976076E-004	9.5959956E-007
2	1	0	0	1	6.655059831879043E+001	-3.4708878E-001	-3.4730768E-001	-2.681866028922123E-003	2.000000000000000E+000	-2.7020622E-004	9.3143268E-007
2	1	0	1	1	6.671719831458176E+001	-3.4375671E-001	-3.4398255E-001	-2.626519217694044E-003	2.000000000000000E+000	-2.7064263E-004	9.0347675E-007
2	1	0	0	1	6.688379831037309E+001	-3.4042466E-001	-3.4064853E-001	-2.572645723366303E-003	2.000000000000000E+000	-2.7106990E-004	8.7636801E-007
2	1	0	1	1	6.705039830616442E+001	-3.3709261E-001	-3.3727992E-001	-2.518970594708535E-003	2.000000000000000E+000	-2.7148824E-004	8.4959817E-007
2	1	0	0	1	6.721699830195575E+001	-3.3376056E-001	-3.3395630E-001	-2.466357377408801E-003	2.000000000000000E+000	-2.7189773E-004	8.2365557E-007
2	1	0	1	1	6.738359829774708E+001	-3.3042845E-001	-3.3061817E-001	-2.415212833302149E-003	2.000000000000000E+000	-2.7229855E-004	7.9851327E-007
2	1	0	0	1	6.755019829353841E+001	-3.2709685E-001	-3.2726219E-001	-2.363629842806837E-003	2.000000000000000E+000	-2.7269078E-004	7.7352666E-007
2	1	0	1	1	6.771679828932974E+001	-3.2376480E-001	-3.2393849E-001	-2.312830951245091E-003	2.000000000000000E+000	-2.7307455E-004	7.4921496E-007
2	1	0	0	1	6.788339828512107E+001	-3.2043275E-001	-3.2061228E-001	-2.263494547773398E-003	2.000000000000000E+000	-2.7344999E-004	7.2570413E-007
2	1	0	1	1	6.804999828091240E+001	-3.1710064E-001	-3.1732887E-001	-2.215245716724597E-003	2.000000000000000E+000	-2.7381728E-004	7.0296142E-007
2	1	0	0	1	6.821659827670373E+001	-3.1376860E-001	-3.1397143E-001	-2.167390521941856E-003	2.000000000000000E+000	-2.7417656E-004	6.8049872E-007
2	1	0	1	1	6.838319827249506E+001	-3.1043655E-001	-3.1063646E-001	-2.119879666645671E-003	2.000000000000000E+000	-2.7452788E-004	6.5851191E-007
2	1	0	0	1	6.854979826828639E+001	-3.0710492E-001	-3.0729717E-001	-2.073084908828397E-003	2.000000000000000E+000	-2.7487130E-004	6.3705312E-007
2	1	0	1	1	6.871639826407772E+001	-3.0377284E-001	-3.0397463E-001	-2.027199653510139E-003	2.000000000000000E+000	-2.7520704E-004	6.1621728E-007
2	1	0	0	1	6.888299825986905E+001	-3.0044076E-001	-3.0063012E-001	-1.981128668504788E-003	2.000000000000000E+000	-2.7553516E-004	5.9558698E-007
2	1	0	1	1	6.904959825566038E+001	-2.9710874E-001	-2.9727724E-001	-1.936835427537007E-003	2.000000000000000E+000	-2.7585580E-004	5.7577711E-007
2	1	0	0	1	6.921619825145171E+001	-2.9377666E-001	-2.9395047E-001	-1.892973488884800E-003	2.000000000000000E+000	-2.7616904E-004	5.5644045E-007
2	1	0	1	1	6.938279824724304E+001	-2.9044458E-001	-2.9062974E-001	-1.850053792392578E-003	2.000000000000000E+000	-2.7647510E-004	5.3768065E-007
2	1	0	0	1	6.954939824303437E+001	-2.8711301E-001	-2.8729299E-001	-1.807353554179922E-003	2.000000000000000E+000	-2.7677405E-004	5.1924002E-007
2	1	0	1	1	6.971599823882570E+001	-2.8378093E-001	-2.8395641E-001	-1.766082510226948E-003	2.000000000000000E+000	-2.7706599E-004	5.0149043E-007
2	1	0	0	1	6.988259823461703E+001	-2.8044888E-001	-2.8062233E-001	-1.724773884820884E-003	2.000000000000000E+000	-2.7735104E-004	4.8401006E-007
2	1	0	1	1	7.004919823040836E+001	-2.7711681E-001	-2.7728856E-001	-1.683833591143998E-003	2.000000000000000E+000	-2.7762935E-004	4.6690778E-007
2	1	0	0	1	7.021579822619969E+001	-2.7378476E-001	-2.7395982E-001	-1.644662870726812E-003	2.000000000000000E+000	-2.7790098E-004	4.5057155E-007
2	1	0	1	1	7.038239822199102E+001	-2.7045268E-001	-2.7064186E-001	-1.605814178078284E-003	2.000000000000000E+000	-2.7816606E-004	4.3460054E-007
2	1	0	0	1	7.054899821778235E+001	-2.6712060E-001	-2.6731908E-001	-1.567464629219521E-003	2.000000000000000E+000	-2.7842465E-004	4.1901322E-007
2	1	0	1	1	7.071559821357368E+001	-2.6378900E-001	-2.6396111E-001	-1.528853216648758E-003	2.000000000000000E+000	-2.7867689E-004	4.0355778E-007
2	1	0	0	1	7.088219820936501E+001	-2.6045689E-001	-2.6063490E-001	-1.491137997672783E-003	2.000000000000000E+000	-2.7892279E-004	3.8864260E-007
2	1	0	1	1	7.104879820515634E+001	-2.5712487E-001	-2.5729457E-001	-1.453824142754290E-003	2.000000000000000E+000	-2.7916243E-004	3.7406105E-007
2	1	0	0	1	7.121539820094767E+001	-2.5379279E-001	-2.5398526E-001	-1.417400267971498E-003	2.000000000000000E+000	-2.7939596E-004	3.5999878E-007
2	1	0	1	1	7.138199819673900E+001	-2.5046074E-001	-2.5064874E-001	-1.381042313798620E-003	2.000000000000000E+000	-2.7962346E-004	3.4615653E-007
2	1	0	0	1	7.154859819253033E+001	-2.4712868E-001	-2.4731152E-001	-1.345033315721408E-003	2.000000000000000E+000	-2.7984491E-004	3.3264223E-007
2	1	0	1	1	7.171519818832166E+001	-2.4379708E-001	-2.4396354E-001	-1.309386407886831E-003	2.000000000000000E+000	-2.8006040E-004	3.1944253E-007
2	1	0	0	1	7.188179818411299E+001	-2.4046500E-001	-2.4065048E-001	-1.274372030157653E-003	2.000000000000000E+000	-2.8026997E-004	3.0667823E-007
2	1	0	1	1	7.204839817990432E+001	-2.3713292E-001	-2.3733126E-001	-1.238239461525765E-003	2.000000000000000E+000	-2.8047370E-004	2.9387292E-007
2	1	0	0	1	7.221499817569565E+001	-2.3380087E-001	-2.3399891E-001	-1.202896091681505E-003	2.000000000000000E+000	-2.8067140E-004	2.8147636E-007
2	1	0	1	1	7.238159817148698E+001	-2.3046881E-001	-2.3066910E-001	-1.167265897348366E-003	2.000000000000000E+000	-2.8086320E-004	2.6925218E-007
2	1	0	0	1	7.254819816727831E+001	-2.2713673E-001	-2.2735389E-001	-1.133947328677918E-003	2.000000000000000E+000	-2.8104932E-004	2.5780733E-007
2	1	0	1	1	7.271479816306964E+001	-2.2380510E-001	-2.2400342E-001	-1.100677994040329E-003	2.000000000000000E+000	-2.8122988E-004	2.4655563E-007
2	1	0	0	1	7.288139815886097E+001	-2.2047305E-001	-2.2067295E-001	-1.067522190508303E-003	2.000000000000000E+000	-2.8140491E-004	2.3557327E-007
2	1	0	1	1	7.304799815465231E+001	-2.1714100E-001	-2.1733509E-001	-1.034035649996375E-003	2.000000000000000E+000	-2.8157441E-004	2.2473223E-007
2	1	0	0	1	7.321459815044364E+001	-2.1380894E-001	-2.1399309E-001	-1.000901266967173E-003	2.000000000000000E+000	-2.8173841E-004	2.1418595E-007
2	1	0	1	1	7.338119814623497E+001	-2.1047686E-001	-2.1065541E-001	-9.672911557084343E-004	2.000000000000000E+000	-2.8189679E-004	2.0376511E-007
2	1	0	0	1	7.354779814202630E+001	-2.0714481E-001	-2.0732133E-001	-9.336778665229341E-004	2.000000000000000E+000	-2.8204959E-004	1.9357134E-007
2	1	0	1	1	7.371439813781763E+001	-2.0381273E-001	-2.0398411E-001	-9.014538119158678E-004	2.000000000000000E+000	-2.8219694E-004	1.8388225E-007
2	1	0	0	1	7.388099813360896E+001	-2.0048068E-001	-2.0065327E-001	-8.682076106456653E-004	2.000000000000000E+000	-2.8233882E-004	1.7420869E-007
2	1	0	0	1	7.404769812939776E+001	-1.9714682E-001	-1.9733080E-001	-8.350552127999386E-004	2.000000000000000E+000	-2.8247529E-004	1.6478212E-007
2	1	0	1	1	7.421429812518909E+001	-1.9381477E-001	-1.9399311E-001	-8.011849836206796E-004	2.000000000000000E+000	-2.8260608E-004	1.5542436E-007
2	1	0	0	1	7.438089812098042E+001	-1.9048269E-001	-1.9065510E-001	-7.675434904093397E-004	2.000000000000000E+000	-2.8273126E-004	1.4633608E-007
2	1	0	1	1	7.454749811677175E+001	-1.8715064E-001	-1.8731155E-001	-7.337402644974509E-004	2.000000000000000E+000	-2.8285087E-004	1.3743802E-007
2	1	0	0	1	7.471409811256308E+001	-1.8381858E-001	-1.8401414E-001	-7.006079481069031E-004	2.000000000000000E+000	-2.8296484E-004	1.2892177E-007
2	1	0	1	1	7.488069810835441E+001	-1.8048652E-001	-1.8067458E-001	-6.667607396099867E-004	2.000000000000000E+000	-2.8307323E-004	1.2046672E-007
2	1	0	0	1	7.504729810414574E+001	-1.7715488E-001	-1.7732340E-001	-6.329301032017842E-004	2.000000000000000E+000	-2.8317596E-004	1.1223332E-007
2	1	0	1	1	7.521389809993707E+001	-1.7382284E-001	-1.7400067E-001	-5.994857081437969E-004	2.000000000000000E+000	-2.8327311E-004	1.0431091E-007
2	1	0	0	1	7.538049809572840E+001	-1.7049076E-001	-1.7067611E-001	-5.666707733585552E-004	2.000000000000000E+000	-2.8336482E-004	9.6717166E-008
2	1	0	1	1	7.554709809151973E+001	-1.6715869E-001	-1.6734950E-001	-5.340129088688634E-004	2.000000000000000E+000	-2.8345102E-004	8.9366793E-008
2	1	0	0	1	7.573869808667951E+001	-1.6332668E-001	-1.6351217E-001	-4.982525875287611E-004	2.000000000000000E+000	-2.8354366E-004	8.1470361E-008
2	1	0	1	1	7.593029808183928E+001	-1.5949452E-001	-1.5968090E-001	-4.641022024410302E-004	2.000000000000000E+000	-2.8363030E-004	7.4108257E-008
2	1	0	0	1	7.609689807763061E+001	-1.5616290E-001	-1.5634121E-001	-4.333887555528666E-004	2.000000000000000E+000	-2.8369942E-004	6.7756524E-008
2	1	0	1	1	7.626349807342194E+001	-1.5283082E-001	-1.5300399E-001	-4.044840571324586E-004	2.000000000000000E+000	-2.8376354E-004	6.1887675E-008
2	1	0	0	1	7.643009806921327E+001	-1.4949878E-001	-1.4968733E-001	-3.755661591724736E-004	2.000000000000000E+000	-2.8382288E-004	5.6217498E-008
2	1	0	1	1	7.659669806500460E+001	-1.4616671E-001	-1.4636704E-001	-3.484604561320660E-004	2.000000000000000E+000	-2.8387763E-004	5.1003127E-008
2	1	0	0	1	7.676329806079593E+001	-1.4283465E-001	-1.4302716E-001	-3.219330971067063E-004	2.000000000000000E+000	-2.8392783E-004	4.6045177E-008
2	1	0	1	1	7.692989805658726E+001	-1.3950260E-001	-1.3969329E-001	-2.969652183163608E-004	2.000000000000000E+000	-2.8397376E-004	4.1484050E-008
2	1	0	0	1	7.709649805237859E+001	-1.3617097E-001	-1.3635306E-001	-2.724658412458978E-004	2.000000000000000E+000	-2.8401555E-004	3.7151551E-008
2	1	0	1	1	7.726309804816992E+001	-1.3283890E-001	-1.3301483E-001	-2.495676163036788E-004	2.000000000000000E+000	-2.8405341E-004	3.3196194E-008
2	1	0	0	1	7.742969804396125E+001	-1.2950684E-001	-1.2966616E-001	-2.282734503290189E-004	2.000000000000000E+000	-2.8408761E-004	2.9599343E-008
2	1	0	1	1	7.759629803975258E+001	-1.2617478E-001	-1.2632601E-001	-2.074930497360942E-004	2.000000000000000E+000	-2.8411832E-004	2.6211769E-008
2	1	0	0	1	7.776289803554391E+001	-1.2284270E-001	-1.2296970E-001	-1.884098842564411E-004	2.000000000000000E+000	-2.8414573E-004	2.3168708E-008
2	1	0	1	1	7.792949803133524E+001	-1.1951064E-001	-1.1965947E-001	-1.716595980533991E-004	2.000000000000000E+000	-2.8417021E-004	2.0540696E-008
2	1	0	0	1	7.809619802712405E+001	-1.1617681E-001	-1.1632570E-001	-1.557086679150009E-004	2.000000000000000E+000	-2.8419195E-004	1.8112919E-008
2	1	0	1	1	7.826279802291538E+001	-1.1284475E-001	-1.1297664E-001	-1.406813677749342E-004	2.000000000000000E+000	-2.8421110E-004	1.5893708E-008
2	1	0	0	1	7.842939801870671E+001	-1.0951269E-001	-1.0965493E-001	-1.278943541894494E-004	2.000000000000000E+000	-2.8422804E-004	1.4024246E-008
2	1	0	1	1	7.859599801449804E+001	-1.0618063E-001	-1.0633702E-001	-1.159441915838169E-004	2.000000000000000E+000	-2.8424300E-004	1.2329160E-008
2	1	0	0	1	7.876259801028937E+001	-1.0284857E-001	-1.0301121E-001	-1.072618411508867E-004	2.000000000000000E+000	-2.8425618E-004	1.1049172E-008
2	1	0	1	1	7.892919800608070E+001	-9.9516504E-002	-9.9671260E-002	-9.840519452355241E-005	2.000000000000000E+000	-2.8426788E-004	9.8081694E-009
2	1	0	0	1	7.909579800187203E+001	-9.6184440E-002	-9.6323453E-002	-9.184580468543516E-005	2.000000000000000E+000	-2.8427836E-004	8.8469054E-009
2	1	0	1	1	7.926239799766336E+001	-9.2852823E-002	-9.2993259E-002	-8.684383022506098E-005	2.000000000000000E+000	-2.8428782E-004	8.0758911E-009
2	1	0	0	1	7.942899799345469E+001	-8.9520767E-002	-8.9665368E-002	-8.306770940671131E-005	2.000000000000000E+000	-2.8429655E-004	7.4482966E-009
2	1	0	1	1	7.959559798924602E+001	-8.6188711E-002	-8.6329617E-002	-8.047570061291647E-005	2.000000000000000E+000	-2.8430481E-004	6.9474364E-009
2	1	0	0	1	7.976219798503735E+001	-8.2856633E-002	-8.3025441E-002	-7.926307617378287E-005	2.000000000000000E+000	-2.8431285E-004	6.5808519E-009
2	1	0	1	1	7.992879798082868E+001	-7.9524577E-002	-7.9687826E-002	-8.027173090941527E-005	2.000000000000000E+000	-2.8432088E-004	6.3966796E-009
2	1	0	0	1	8.009539797662001E+001	-7.6192513E-002	-7.6353163E-002	-8.177887384419494E-005	2.000000000000000E+000	-2.8432914E-004	6.2440755E-009
2	1	0	1	1	8.026199797241134E+001	-7.2860889E-002	-7.3022552E-002	-8.487668420373014E-005	2.000000000000000E+000	-2.8433770E-004	6.1979120E-009
2	1	0	0	1	8.042859796820267E+001	-6.9528833E-002	-6.9688305E-002	-8.851348557978756E-005	2.000000000000000E+000	-2.8434690E-004	6.1683547E-009
2	1	0	1	1	8.059519796399400E+001	-6.6196769E-002	-6.6367857E-002	-9.324982838216983E-005	2.000000000000000E+000	-2.8435685E-004	6.1887913E-009
2	1	0	0	1	8.076179795978533E+001	-6.2864698E-002	-6.3029163E-002	-9.888890822733998E-005	2.000000000000000E+000	-2.8436765E-004	6.2328849E-009
2	1	0	1	1	8.092839795557666E+001	-5.9532639E-002	-5.9719034E-002	-1.051041637018994E-004	2.000000000000000E+000	-2.8437941E-004	6.2767191E-009
2	1	0	0	1	8.109499795136799E+001	-5.6200571E-002	-5.6383092E-002	-1.113340735295273E-004	2.000000000000000E+000	-2.8439224E-004	6.2773595E-009
2	1	0	1	1	8.126159794715932E+001	-5.2868959E-002	-5.3037845E-002	-1.186716164437991E-004	2.000000000000000E+000	-2.8440618E-004	6.2940866E-009
2	1	0	0	1	8.142819794295065E+001	-4.9536895E-002	-4.9710803E-002	-1.255769211133688E-004	2.000000000000000E+000	-2.8442132E-004	6.2425296E-009
2	1	0	1	1	8.159479793874198E+001	-4.6204831E-002	-4.6375267E-002	-1.328104999428935E-004	2.000000000000000E+000	-2.8443761E-004	6.1591225E-009
2	1	0	0	1	8.176139793453331E+001	-4.2872768E-002	-4.3063320E-002	-1.401060902213745E-004	2.000000000000000E+000	-2.8445522E-004	6.0334333E-009
2	1	0	1	1	8.192799793032464E+001	-3.9540708E-002	-3.9686427E-002	-1.471405972207872E-004	2.000000000000000E+000	-2.8447394E-004	5.8394845E-009
2	1	0	0	1	8.209459792611597E+001	-3.6208645E-002	-3.6367919E-002	-1.542320208698942E-004	2.000000000000000E+000	-2.8449387E-004	5.6090976E-009
2	1	0	1	1	8.226119792190730E+001	-3.2876577E-002	-3.3046372E-002	-1.611017941278216E-004	2.000000000000000E+000	-2.8451497E-004	5.3238298E-009
2	1	0	0	1	8.242779791769863E+001	-2.9544963E-002	-2.9707681E-002	-1.671358646925414E-004	2.000000000000000E+000	-2.8453715E-004	4.9652189E-009
2	1	0	1	1	8.259439791348996E+001	-2.6212899E-002	-2.6347574E-002	-1.730598479690942E-004	2.000000000000000E+000	-2.8456040E-004	4.5597073E-009
2	1	0	0	1	8.276099790928129E+001	-2.2880835E-002	-2.3016695E-002	-1.792264634347550E-004	2.000000000000000E+000	-2.8458468E-004	4.1252006E-009
2	1	0	1	1	8.292759790507262E+001	-1.9548776E-002	-1.9708298E-002	-1.854133695153846E-004	2.000000000000000E+000	-2.8460991E-004	3.6541821E-009
2	1	0	0	1	8.309419790086395E+001	-1.6216712E-002	-1.6389355E-002	-1.898919196113135E-004	2.000000000000000E+000	-2.8463607E-004	3.1122060E-009
2	1	0	1	1	8.326079789665528E+001	-1.2884647E-002	-1.3061012E-002	-1.936080516942268E-004	2.000000000000000E+000	-2.8466296E-004	2.5287170E-009
2	1	0	0	1	8.342739789244661E+001	-9.5530292E-003	-9.7365426E-003	-1.982601474812841E-004	2.000000000000000E+000	-2.8469050E-004	1.9303683E-009
2	1	0	1	1	8.359399788823794E+001	-6.2209656E-003	-6.3989316E-003	-2.023804797265483E-004	2.000000000000000E+000	-2.8471876E-004	1.2950189E-009
2	1	0	0	1	8.376059788402927E+001	-2.8889026E-003	-3.0771154E-003	-2.057811180574964E-004	2.000000000000000E+000	-2.8474769E-004	6.3321226E-010
2	1	0	1	1	8.392719787982060E+001	4.5557620E-004	2.7313779E-004	-2.085315966744846E-004	2.000000000000000E+000	-2.8477711E-004	5.6957859E-011
2	1	0	0	1	8.409379787561193E+001	3.7752218E-003	3.6330682E-003	-2.106768400962035E-004	2.000000000000000E+000	-2.8480697E-004	7.6540330E-010
2	1	0	1	1	8.426039787140326E+001	7.1072830E-003	6.9512553E-003	-2.133396989315115E-004	2.000000000000000E+000	-2.8483721E-004	1.4829787E-009
2	1	0	0	1	8.442699786719459E+001	1.0438900E-002	1.0304319E-002	-2.138399111526346E-004	2.000000000000000E+000	-2.8486780E-004	2.2034745E-009
2	1	0	1	1	8.459359786298592E+001	1.3770961E-002	1.3640275E-002	-2.160210741731880E-004	2.000000000000000E+000	-2.8489862E-004	2.9465870E-009
2	1	0	0	1	8.476019785877725E+001	1.7103022E-002	1.6954571E-002	-2.169355237083663E-004	2.000000000000000E+000	-2.8492961E-004	3.6780488E-009
2	1	0	1	1	8.492679785456858E+001	2.0435086E-002	2.0312151E-002	-2.173181641260007E-004	2.000000000000000E+000	-2.8496076E-004	4.4141992E-009
2	1	0	0	1	8.509339785035991E+001	2.3767145E-002	2.3629215E-002	-2.176428176468058E-004	2.000000000000000E+000	-2.8499204E-004	5.1427289E-009
2	1	0	1	1	8.525999784615124E+001	2.7099209E-002	2.6958760E-002	-2.175742636387574E-004	2.000000000000000E+000	-2.8502333E-004	5.8655325E-009
2	1	0	0	1	8.542659784194257E+001	3.0431267E-002	3.0282874E-002	-2.177413342146876E-004	2.000000000000000E+000	-2.8505462E-004	6.5938335E-009
2	1	0	1	1	8.559319783773390E+001	3.3763330E-002	3.3619892E-002	-2.170127337420393E-004	2.000000000000000E+000	-2.8508581E-004	7.2959447E-009
2	1	0	1	1	8.575989783352270E+001	3.7097163E-002	3.6954794E-002	-2.158209854688673E-004	2.000000000000000E+000	-2.8511696E-004	7.9756202E-009
2	1	0	0	1	8.592649782931403E+001	4.0429227E-002	4.0288638E-002	-2.149528107039411E-004	2.000000000000000E+000	-2.8514792E-004	8.6601561E-009
2	1	0	1	1	8.609309782510536E+001	4.3761287E-002	4.3632645E-002	-2.140062187747332E-004	2.000000000000000E+000	-2.8517868E-004	9.3376578E-009
2	1	0	0	1	8.625969782089669E+001	4.7093350E-002	4.6984728E-002	-2.120518295004679E-004	2.000000000000000E+000	-2.8520919E-004	9.9631974E-009
2	1	0	1	1	8.642629781668802E+001	5.0425410E-002	5.0311107E-002	-2.106952544840184E-004	2.000000000000000E+000	-2.8523951E-004	1.0600312E-008
2	1	0	0	1	8.659289781247935E+001	5.3757470E-002	5.3650834E-002	-2.088134164737613E-004	2.000000000000000E+000	-2.8526952E-004	1.1203014E-008
2	1	0	1	1	8.675949780827068E+001	5.7089087E-002	5.6987200E-002	-2.066635449228631E-004	2.000000000000000E+000	-2.8529923E-004	1.1777177E-008
2	1	0	0	1	8.692609780406201E+001	6.0421150E-002	6.0320802E-002	-2.049664037548136E-004	2.000000000000000E+000	-2.8532863E-004	1.2363738E-008
2	1	0	1	1	8.709269779985334E+001	6.3753210E-002	6.3629851E-002	-2.028324060933285E-004	2.000000000000000E+000	-2.8535770E-004	1.2906196E-008
2	1	0	0	1	8.725929779564467E+001	6.7085274E-002	6.6956222E-002	-2.001508537304824E-004	2.000000000000000E+000	-2.8538640E-004	1.3401345E-008
2	1	0	1	1	8.742589779143600E+001	7.0417330E-002	7.0276074E-002	-1.974667868156464E-004	2.000000000000000E+000	-2.8541469E-004	1.3877191E-008
2	1	0	0	1	8.759249778722733E+001	7.3749393E-002	7.3624067E-002	-1.949068790322865E-004	2.000000000000000E+000	-2.8544254E-004	1.4349837E-008
2	1	0	1	1	8.775909778301866E+001	7.7081010E-002	7.6954961E-002	-1.921883688366230E-004	2.000000000000000E+000	-2.8546996E-004	1.4789848E-008
2	1	0	0	1	8.792569777880999E+001	8.0413073E-002	8.0282800E-002	-1.887243611378986E-004	2.000000000000000E+000	-2.8549685E-004	1.5151320E-008
2	1	0	1	1	8.809229777460132E+001	8.3745129E-002	8.3619565E-002	-1.857245803037794E-004	2.000000000000000E+000	-2.8552327E-004	1.5530208E-008
2	1	0	0	1	8.825889777039265E+001	8.7077193E-002	8.6933479E-002	-1.826556001921810E-004	2.000000000000000E+000	-2.8554921E-004	1.5878888E-008
2	1	0	1	1	8.842549776618398E+001	9.0409249E-002	9.0271980E-002	-1.791082785105825E-004	2.000000000000000E+000	-2.8557456E-004	1.6168459E-008
2	1	0	0	1	8.859209776197531E+001	9.3741313E-002	9.3586288E-002	-1.753855960805904E-004	2.000000000000000E+000	-2.8559932E-004	1.6413686E-008
2	1	0	1	1	8.875879775776411E+001	9.7075164E-002	9.6937820E-002	-1.720708542208280E-004	2.000000000000000E+000	-2.8562351E-004	1.6680174E-008
2	1	0	0	1	8.886699775503075E+001	9.9239677E-002	9.9097267E-002	-1.688422463231303E-004	2.000000000000000E+000	-2.8563893E-004	1.6731805E-008
2	0	0	0	1	8.890079775417689E+001	9.9906117E-002	9.9803142E-002	-1.685964449886041E-004	2.000000000000000E+000	-2.8564371E-004	1.6826455E-008
2	0	0	1	1	8.899239775186288E+001	9.8072127E-002	9.7940497E-002	-2.073166258621326E-004	2.000000000000000E+000	-2.8566495E-004	2.0304693E-008
2	0	0	0	1	8.915899774765421E+001	9.4740495E-002	9.4605610E-002	-2.490232187900331E-004	2.000000000000000E+000	-2.8570797E-004	2.3558993E-008
2	0	0	1	1	8.932559774344554E+001	9.1408446E-002	9.1273747E-002	-2.828694299694349E-004	2.000000000000000E+000	-2.8575721E-004	2.5818553E-008
2	0	0	0	1	8.949219773923687E+001	8.8076383E-002	8.7932482E-002	-3.129541959200292E-004	2.000000000000000E+000	-2.8581172E-004	2.7518839E-008
2	0	0	1	1	8.965879773502820E+001	8.4744312E-002	8.4608391E-002	-3.398956878000821E-004	2.000000000000000E+000	-2.8587095E-004	2.8758027E-008
2	0	0	0	1	8.982539773081953E+001	8.1412256E-002	8.1287742E-002	-3.638629180214110E-004	2.000000000000000E+000	-2.8593448E-004	2.9577595E-008
2	0	0	1	1	8.999199772661086E+001	7.8080200E-002	7.7965997E-002	-3.873963533349662E-004	2.000000000000000E+000	-2.8600200E-004	3.0203744E-008
2	0	0	0	1	9.015859772240219E+001	7.4748576E-002	7.4615009E-002	-4.098904892539266E-004	2.000000000000000E+000	-2.8607337E-004	3.0583983E-008
2	0	0	1	1	9.032519771819352E+001	7.1416512E-002	7.1287580E-002	-4.302927808031310E-004	2.000000000000000E+000	-2.8614822E-004	3.0674531E-008
2	0	0	0	1	9.049179771398485E+001	6.8084449E-002	6.7963265E-002	-4.495288728750164E-004	2.000000000000000E+000	-2.8622642E-004	3.0551451E-008
2	0	0	1	1	9.065839770977618E+001	6.4752392E-002	6.4631328E-002	-4.682777557842533E-004	2.000000000000000E+000	-2.8630774E-004	3.0265412E-008
2	0	0	0	1	9.082499770556751E+001	6.1420329E-002	6.1314691E-002	-4.854617747090872E-004	2.000000000000000E+000	-2.8639202E-004	2.9765939E-008
2	0	0	1	1	9.099159770135884E+001	5.8088265E-002	5.7985131E-002	-5.019576199982263E-004	2.000000000000000E+000	-2.8647916E-004	2.9106078E-008
2	0	0	0	1	9.115819769715017E+001	5.4756653E-002	5.4638367E-002	-5.177386370113918E-004	2.000000000000000E+000	-2.8656903E-004	2.8288394E-008
2	0	0	1	1	9.132479769294150E+001	5.1424589E-002	5.1288448E-002	-5.332686742523514E-004	2.000000000000000E+000	-2.8666153E-004	2.7350524E-008
2	0	0	0	1	9.149139768873283E+001	4.8092525E-002	4.7970146E-002	-5.479337281080968E-004	2.000000000000000E+000	-2.8675655E-004	2.6284461E-008
2	0	0	1	1	9.165799768452416E+001	4.4760466E-002	4.4619508E-002	-5.622526173497504E-004	2.000000000000000E+000	-2.8685399E-004	2.5087434E-008
2	0	0	0	1	9.182459768031549E+001	4.1428406E-002	4.1283622E-002	-5.757708419312762E-004	2.000000000000000E+000	-2.8695376E-004	2.3769905E-008
2	0	0	1	1	9.199119767610682E+001	3.8096342E-002	3.7953820E-002	-5.887736788041083E-004	2.000000000000000E+000	-2.8705571E-004	2.2346210E-008
2	0	0	0	1	9.215779767189815E+001	3.4764282E-002	3.4615759E-002	-6.013440921131914E-004	2.000000000000000E+000	-2.8715981E-004	2.0815982E-008
2	0	0	1	1	9.232439766768948E+001	3.1432666E-002	3.1279590E-002	-6.134680595030094E-004	2.000000000000000E+000	-2.8726595E-004	1.9189029E-008
2	0	0	0	1	9.249099766348081E+001	2.8100604E-002	2.7948970E-002	-6.253335688386451E-004	2.000000000000000E+000	-2.8737410E-004	1.7477429E-008
2	0	0	1	1	9.265759765927214E+001	2.4768541E-002	2.4618922E-002	-6.370452626689414E-004	2.000000000000000E+000	-2.8748423E-004	1.5683367E-008
2	0	0	0	1	9.282419765506347E+001	2.1436481E-002	2.1316078E-002	-6.478671221685391E-004	2.000000000000000E+000	-2.8759622E-004	1.3809986E-008
2	0	0	1	1	9.299079765085480E+001	1.8104417E-002	1.7982682E-002	-6.589575339077764E-004	2.000000000000000E+000	-2.8771002E-004	1.1849824E-008
2	0	0	0	1	9.315739764664613E+001	1.4772356E-002	1.4652926E-002	-6.691580631826234E-004	2.000000000000000E+000	-2.8782565E-004	9.8051238E-009
2	0	0	1	1	9.332399764243746E+001	1.1440295E-002	1.1283305E-002	-6.795449441762934E-004	2.000000000000000E+000	-2.8794302E-004	7.6675128E-009
2	0	0	0	1	9.349059763822879E+001	8.1086783E-003	7.9386570E-003	-6.884079665616738E-004	2.000000000000000E+000	-2.8806203E-004	5.4650346E-009
2	0	0	1	1	9.365719763402012E+001	4.7766170E-003	4.6246573E-003	-6.986251633445497E-004	2.000000000000000E+000	-2.8818261E-004	3.2309020E-009
2	0	0	0	1	9.382379762981145E+001	1.4445556E-003	1.2666223E-003	-7.086224509021694E-004	2.000000000000000E+000	-2.8830490E-004	8.9755703E-010
2	0	0	1	1	9.399039762560278E+001	-1.8875063E-003	-2.0721355E-003	-7.178374820725258E-004	2.000000000000000E+000	-2.8842883E-004	1.4874565E-009
2	0	0	0	1	9.415699762139411E+001	-5.2195694E-003	-5.4000635E-003	-7.275378554073399E-004	2.000000000000000E+000	-2.8855432E-004	3.9287507E-009
2	0	0	1	1	9.432359761718544E+001	-8.5516330E-003	-8.7436009E-003	-7.361330007612434E-004	2.000000000000000E+000	-2.8868130E-004	6.4364531E-009
2	0	0	0	1	9.449019761297677E+001	-1.1883251E-002	-1.2075490E-002	-7.449621811712881E-004	2.000000000000000E+000	-2.8880980E-004	8.9957837E-009
2	0	0	1	1	9.465679760876810E+001	-1.5215315E-002	-1.5421213E-002	-7.536125114954197E-004	2.000000000000000E+000	-2.8893974E-004	1.1621619E-008
2	0	0	0	1	9.482339760455943E+001	-1.8547378E-002	-1.8735515E-002	-7.615079489490372E-004	2.000000000000000E+000	-2.8907103E-004	1.4267243E-008
2	0	0	1	1	9.498999760035076E+001	-2.1879438E-002	-2.2056034E-002	-7.700989311226099E-004	2.000000000000000E+000	-2.8920372E-004	1.6985329E-008
2	0	0	0	1	9.515659759614209E+001	-2.5211502E-002	-2.5376482E-002	-7.779784526855355E-004	2.000000000000000E+000	-2.8933777E-004	1.9742355E-008
2	0	0	1	1	9.532319759193342E+001	-2.8543565E-002	-2.8715400E-002	-7.861580729950409E-004	2.000000000000000E+000	-2.8947319E-004	2.2574843E-008
2	0	0	0	1	9.548979758772475E+001	-3.1875629E-002	-3.2054920E-002	-7.944288722025921E-004	2.000000000000000E+000	-2.8961003E-004	2.5465354E-008
2	0	0	0	1	9.565649758351356E+001	-3.5209466E-002	-3.5404708E-002	-8.020526324756250E-004	2.000000000000000E+000	-2.8974825E-004	2.8396439E-008
2	0	0	1	1	9.582309757930489E+001	-3.8541529E-002	-3.8725574E-002	-8.100398313378478E-004	2.000000000000000E+000	-2.8988771E-004	3.1369257E-008
2	0	0	0	1	9.598969757509622E+001	-4.1873589E-002	-4.2082969E-002	-8.179688441112207E-004	2.000000000000000E+000	-2.9002852E-004	3.4422559E-008
2	0	0	1	1	9.615629757088755E+001	-4.5205656E-002	-4.5393907E-002	-8.252943872771572E-004	2.000000000000000E+000	-2.9017060E-004	3.7463337E-008
2	0	0	0	1	9.632289756667888E+001	-4.8537713E-002	-4.8739366E-002	-8.334088058906362E-004	2.000000000000000E+000	-2.9031394E-004	4.0619817E-008
2	0	0	1	1	9.648949756247021E+001	-5.1869780E-002	-5.2065346E-002	-8.403627114612587E-004	2.000000000000000E+000	-2.9045859E-004	4.3753776E-008
2	0	0	0	1	9.665609755826154E+001	-5.5201396E-002	-5.5416528E-002	-8.481591835262960E-004	2.000000000000000E+000	-2.9060454E-004	4.7002036E-008
2	0	0	1	1	9.682269755405287E+001	-5.8533456E-002	-5.8751415E-002	-8.560395134743284E-004	2.000000000000000E+000	-2.9075175E-004	5.0293533E-008
2	0	0	0	1	9.698929754984420E+001	-6.1865520E-002	-6.2058307E-002	-8.632707549560189E-004	2.000000000000000E+000	-2.9090018E-004	5.3573121E-008
2	0	0	1	1	9.715589754563553E+001	-6.5197587E-002	-6.5397449E-002	-8.709510438999693E-004	2.000000000000000E+000	-2.9104989E-004	5.6957976E-008
2	0	0	0	1	9.732249754142686E+001	-6.8529651E-002	-6.8719827E-002	-8.785065531094517E-004	2.000000000000000E+000	-2.9120088E-004	6.0370816E-008
2	0	0	1	1	9.750579753679631E+001	-7.2195284E-002	-7.2373822E-002	-8.864695362390505E-004	2.000000000000000E+000	-2.9137015E-004	6.4157192E-008
2	0	0	0	1	9.768899753216829E+001	-7.5859301E-002	-7.6036692E-002	-8.948255518841080E-004	2.000000000000000E+000	-2.9154055E-004	6.8039576E-008
2	0	0	1	1	9.785559752795962E+001	-7.9191364E-002	-7.9366706E-002	-9.025224996381843E-004	2.000000000000000E+000	-2.9169529E-004	7.1630240E-008
2	0	0	0	1	9.802219752375095E+001	-8.2523428E-002	-8.2673170E-002	-9.103079605417529E-004	2.000000000000000E+000	-2.9185135E-004	7.5258043E-008
2	0	0	1	1	9.818879751954228E+001	-8.5855491E-002	-8.6028181E-002	-9.181708907191125E-004	2.000000000000000E+000	-2.9200871E-004	7.8988570E-008
2	0	0	0	1	9.835539751533361E+001	-8.9187555E-002	-8.9354411E-002	-9.263222917764817E-004	2.000000000000000E+000	-2.9216742E-004	8.2770981E-008
2	0	0	1	1	9.852199751112494E+001	-9.2519619E-002	-9.2659160E-002	-9.343790445160696E-004	2.000000000000000E+000	-2.9232749E-004	8.6578780E-008
2	0	0	0	1	9.868859750691627E+001	-9.5851228E-002	-9.6014991E-002	-9.433300484140393E-004	2.000000000000000E+000	-2.9248901E-004	9.0573828E-008
2	0	0	1	1	9.885519750270760E+001	-9.9183291E-002	-9.9338479E-002	-9.518145972944383E-004	2.000000000000000E+000	-2.9265194E-004	9.4551815E-008
2	0	0	0	1	9.902179749849893E+001	-1.0251536E-001	-1.0267013E-001	-9.606908732139249E-004	2.000000000000000E+000	-2.9281637E-004	9.8634253E-008
2	0	0	1	1	9.918839749429026E+001	-1.0584743E-001	-1.0599148E-001	-9.697641154826180E-004	2.000000000000000E+000	-2.9298232E-004	1.0278673E-007
2	0	0	0	1	9.935499749008159E+001	-1.0917949E-001	-1.0933042E-001	-9.795363458118666E-004	2.000000000000000E+000	-2.9314982E-004	1.0709311E-007
2	0	0	1	1	9.952159748587292E+001	-1.1251155E-001	-1.1263877E-001	-9.896438887907685E-004	2.000000000000000E+000	-2.9331900E-004	1.1147227E-007
2	0	0	0	1	9.968819748166425E+001	-1.1584361E-001	-1.1597981E-001	-1.000239739368101E-003	2.000000000000000E+000	-2.9348992E-004	1.1600761E-007
2	0	0	0	1	9.985489747745305E+001	-1.1917745E-001	-1.1931265E-001	-1.011417500117406E-003	2.000000000000000E+000	-2.9366277E-004	1.2067490E-007
2	0	0	1	1	1.000214974732444E+002	-1.2250950E-001	-1.2264033E-001	-1.022532436223609E-003	2.000000000000000E+000	-2.9383737E-004	1.2540372E-007
2	0	0	0	1	1.001880974690357E+002	-1.2584157E-001	-1.2600297E-001	-1.035625460083023E-003	2.000000000000000E+000	-2.9401403E-004	1.3049188E-007
2	0	0	1	1	1.003546974648270E+002	-1.2917364E-001	-1.2934949E-001	-1.048732931748012E-003	2.000000000000000E+000	-2.9419287E-004	1.3565307E-007
2	0	0	0	1	1.005212974606184E+002	-1.3250570E-001	-1.3267989E-001	-1.062872277262691E-003	2.000000000000000E+000	-2.9437398E-004	1.4102179E-007
2	0	0	1	1	1.006878974564097E+002	-1.3583776E-001	-1.3601224E-001	-1.078406600665410E-003	2.000000000000000E+000	-2.9455757E-004	1.4667650E-007
2	0	0	0	1	1.008544974522010E+002	-1.3916938E-001	-1.3934861E-001	-1.094233688648643E-003	2.000000000000000E+000	-2.9474380E-004	1.5247994E-007
2	0	0	1	1	1.010210974479924E+002	-1.4250143E-001	-1.4267567E-001	-1.111947475008319E-003	2.000000000000000E+000	-2.9493286E-004	1.5864785E-007
2	0	0	0	1	1.011876974437837E+002	-1.4583351E-001	-1.4601626E-001	-1.130613933524885E-003	2.000000000000000E+000	-2.9512495E-004	1.6508801E-007
2	0	0	1	1	1.013542974395750E+002	-1.4916556E-001	-1.4934793E-001	-1.150860668885954E-003	2.000000000000000E+000	-2.9532032E-004	1.7187865E-007
2	0	0	0	1	1.015208974353664E+002	-1.5249762E-001	-1.5268116E-001	-1.172857925164597E-003	2.000000000000000E+000	-2.9551922E-004	1.7907331E-007
2	0	0	1	1	1.016874974311577E+002	-1.5582968E-001	-1.5599717E-001	-1.196387000670487E-003	2.000000000000000E+000	-2.9572195E-004	1.8663299E-007
2	0	0	0	1	1.018540974269490E+002	-1.5916133E-001	-1.5934564E-001	-1.222484816601491E-003	2.000000000000000E+000	-2.9592885E-004	1.9479762E-007
2	0	0	1	1	1.020206974227403E+002	-1.6249338E-001	-1.6268134E-001	-1.249964676913311E-003	2.000000000000000E+000	-2.9614024E-004	2.0334593E-007
2	0	0	0	1	1.021872974185317E+002	-1.6582543E-001	-1.6602431E-001	-1.279279486288924E-003	2.000000000000000E+000	-2.9635633E-004	2.1239150E-007
2	0	0	1	1	1.023538974143230E+002	-1.6915751E-001	-1.6936357E-001	-1.311048835912629E-003	2.000000000000000E+000	-2.9657752E-004	2.2204391E-007
2	0	0	0	1	1.025204974101143E+002	-1.7248955E-001	-1.7268644E-001	-1.343949562246439E-003	2.000000000000000E+000	-2.9680412E-004	2.3208187E-007
2	0	0	1	1	1.026870974059057E+002	-1.7582163E-001	-1.7602342E-001	-1.378752742689638E-003	2.000000000000000E+000	-2.9703646E-004	2.4269278E-007
2	0	0	0	1	1.028537974016945E+002	-1.7915547E-001	-1.7935351E-001	-1.416240682537833E-003	2.000000000000000E+000	-2.9727499E-004	2.5400774E-007
2	0	0	1	1	1.030203973974858E+002	-1.8248755E-001	-1.8267888E-001	-1.455477164138783E-003	2.000000000000000E+000	-2.9751973E-004	2.6588495E-007
2	0	0	0	1	1.031869973932771E+002	-1.8581963E-001	-1.8602711E-001	-1.496689115088556E-003	2.000000000000000E+000	-2.9777121E-004	2.7842475E-007
2	0	0	1	1	1.033535973890685E+002	-1.8915167E-001	-1.8934990E-001	-1.540257138179967E-003	2.000000000000000E+000	-2.9802974E-004	2.9164755E-007
2	0	0	0	1	1.035201973848598E+002	-1.9248372E-001	-1.9266994E-001	-1.584493042260934E-003	2.000000000000000E+000	-2.9829558E-004	3.0528417E-007
2	0	0	1	1	1.036867973806511E+002	-1.9581580E-001	-1.9599675E-001	-1.630311375467376E-003	2.000000000000000E+000	-2.9856898E-004	3.1953573E-007
2	0	0	0	1	1.038533973764424E+002	-1.9914787E-001	-1.9931874E-001	-1.678070417750593E-003	2.000000000000000E+000	-2.9885018E-004	3.3447088E-007
2	0	0	1	1	1.040199973722338E+002	-2.0247948E-001	-2.0265545E-001	-1.727777936783595E-003	2.000000000000000E+000	-2.9913959E-004	3.5014361E-007
2	0	0	0	1	1.041865973680251E+002	-2.0581153E-001	-2.0598738E-001	-1.778488630696925E-003	2.000000000000000E+000	-2.9943732E-004	3.6634620E-007
2	0	0	1	1	1.043531973638164E+002	-2.0914361E-001	-2.0932505E-001	-1.830639209593183E-003	2.000000000000000E+000	-2.9974364E-004	3.8319862E-007
2	0	0	0	1	1.045197973596078E+002	-2.1247567E-001	-2.1267195E-001	-1.884216307025165E-003	2.000000000000000E+000	-3.0005877E-004	4.0071995E-007
2	0	0	1	1	1.046863973553991E+002	-2.1580772E-001	-2.1601602E-001	-1.939266844038348E-003	2.000000000000000E+000	-3.0038302E-004	4.1891272E-007
2	0	0	0	1	1.048529973511904E+002	-2.1913980E-001	-2.1931635E-001	-1.994146268136140E-003	2.000000000000000E+000	-3.0071635E-004	4.3734889E-007
2	0	0	1	1	1.050195973469818E+002	-2.2247185E-001	-2.2266459E-001	-2.051065216642234E-003	2.000000000000000E+000	-3.0105907E-004	4.5669961E-007
2	0	0	0	1	1.051861973427731E+002	-2.2580345E-001	-2.2602041E-001	-2.108405646596874E-003	2.000000000000000E+000	-3.0141135E-004	4.7654271E-007
2	0	0	1	1	1.053527973385644E+002	-2.2913554E-001	-2.2932395E-001	-2.166814915387116E-003	2.000000000000000E+000	-3.0177325E-004	4.9690254E-007
2	0	0	0	1	1.055193973343557E+002	-2.3246759E-001	-2.3266794E-001	-2.225870790214763E-003	2.000000000000000E+000	-3.0214491E-004	5.1788879E-007
2	0	0	1	1	1.056859973301471E+002	-2.3579967E-001	-2.3598434E-001	-2.284720717952143E-003	2.000000000000000E+000	-3.0252637E-004	5.3915829E-007
2	0	0	0	1	1.058525973259384E+002	-2.3913172E-001	-2.3931438E-001	-2.344591067160548E-003	2.000000000000000E+000	-3.0291776E-004	5.6109434E-007
2	0	0	1	1	1.060191973217297E+002	-2.4246380E-001	-2.4262385E-001	-2.405119056701981E-003	2.000000000000000E+000	-3.0331919E-004	5.8353925E-007
2	0	0	0	1	1.061857973175211E+002	-2.4579541E-001	-2.4597821E-001	-2.464705381327460E-003	2.000000000000000E+000	-3.0373069E-004	6.0626382E-007
2	0	0	1	1	1.063523973133124E+002	-2.4912746E-001	-2.4930605E-001	-2.525771310423402E-003	2.000000000000000E+000	-3.0415226E-004	6.2969008E-007
2	0	0	0	1	1.065189973091037E+002	-2.5245953E-001	-2.5265503E-001	-2.587304481444282E-003	2.000000000000000E+000	-3.0458401E-004	6.5369551E-007
2	0	0	1	1	1.066855973048951E+002	-2.5579160E-001	-2.5595319E-001	-2.647847468425578E-003	2.000000000000000E+000	-3.0502593E-004	6.7772504E-007
2	0	0	0	1	1.068521973006864E+002	-2.5912368E-001	-2.5928441E-001	-2.708058856428979E-003	2.000000000000000E+000	-3.0547788E-004	7.0215742E-007
2	0	0	1	1	1.070187972964777E+002	-2.6245570E-001	-2.6261866E-001	-2.769097764007730E-003	2.000000000000000E+000	-3.0593993E-004	7.2721673E-007
2	0	0	0	1	1.071853972922690E+002	-2.6578778E-001	-2.6595464E-001	-2.829435427860280E-003	2.000000000000000E+000	-3.0641211E-004	7.5250148E-007
2	0	0	1	1	1.073519972880604E+002	-2.6911941E-001	-2.6929078E-001	-2.889978139202894E-003	2.000000000000000E+000	-3.0689439E-004	7.7824444E-007
2	0	0	0	1	1.075185972838517E+002	-2.7245149E-001	-2.7260888E-001	-2.950022280662042E-003	2.000000000000000E+000	-3.0738671E-004	8.0420227E-007
2	0	0	1	1	1.076851972796430E+002	-2.7578351E-001	-2.7594829E-001	-3.010390620376217E-003	2.000000000000000E+000	-3.0788904E-004	8.3071211E-007
2	0	0	0	1	1.078517972754344E+002	-2.7911559E-001	-2.7927467E-001	-3.070620180225171E-003	2.000000000000000E+000	-3.0840142E-004	8.5754647E-007
2	0	0	1	1	1.080183972712257E+002	-2.8244767E-001	-2.8258035E-001	-3.129737637745173E-003	2.000000000000000E+000	-3.0892374E-004	8.8440237E-007
2	0	0	0	1	1.081849972670170E+002	-2.8577974E-001	-2.8594041E-001	-3.190269896312353E-003	2.000000000000000E+000	-3.0945608E-004	9.1222705E-007
2	0	0	1	1	1.083515972628084E+002	-2.8911135E-001	-2.8926951E-001	-3.250012946596881E-003	2.000000000000000E+000	-3.0999837E-004	9.4012967E-007
2	0	0	0	1	1.085181972585997E+002	-2.9244342E-001	-2.9259908E-001	-3.308775725835517E-003	2.000000000000000E+000	-3.1055056E-004	9.6814472E-007
2	0	0	1	1	1.086847972543910E+002	-2.9577544E-001	-2.9594502E-001	-3.369219142825179E-003	2.000000000000000E+000	-3.1111279E-004	9.9710360E-007
2	0	0	0	1	1.088513972501823E+002	-2.9910752E-001	-2.9929730E-001	-3.428366755034397E-003	2.000000000000000E+000	-3.1168494E-004	1.0261009E-006
2	0	0	1	1	1.090179972459737E+002	-3.0243957E-001	-3.0263302E-001	-3.488895895319324E-003	2.000000000000000E+000	-3.1226696E-004	1.0558551E-006
2	0	0	0	1	1.091845972417650E+002	-3.0577162E-001	-3.0595291E-001	-3.546680402501251E-003	2.000000000000000E+000	-3.1285884E-004	1.0851172E-006
2	0	0	1	1	1.093511972375563E+002	-3.0910322E-001	-3.0930528E-001	-3.606219618002796E-003	2.000000000000000E+000	-3.1346065E-004	1.1154227E-006
2	0	0	0	1	1.095177972333477E+002	-3.1243533E-001	-3.1262642E-001	-3.664528124946449E-003	2.000000000000000E+000	-3.1407215E-004	1.1456283E-006
2	0	0	1	1	1.096843972291390E+002	-3.1576741E-001	-3.1594861E-001	-3.722383533876203E-003	2.000000000000000E+000	-3.1469340E-004	1.1760819E-006
2	0	0	0	1	1.098509972249303E+002	-3.1909946E-001	-3.1927586E-001	-3.782100374462319E-003	2.000000000000000E+000	-3.1532446E-004	1.2075334E-006
2	0	0	1	1	1.100175972207217E+002	-3.2243150E-001	-3.2260308E-001	-3.840276176155746E-003	2.000000000000000E+000	-3.1596536E-004	1.2388849E-006
2	0	0	0	1	1.101841972165130E+002	-3.2576361E-001	-3.2594112E-001	-3.900038566191319E-003	2.000000000000000E+000	-3.1661609E-004	1.2711829E-006
2	0	0	1	1	1.103507972123043E+002	-3.2909566E-001	-3.2926500E-001	-3.960603029355456E-003	2.000000000000000E+000	-3.1727678E-004	1.3040880E-006
2	0	0	1	1	1.105174972080931E+002	-3.3242947E-001	-3.3261898E-001	-4.018450283601413E-003	2.000000000000000E+000	-3.1794768E-004	1.3366129E-006
2	0	0	0	1	1.106840972038844E+002	-3.3576155E-001	-3.3594078E-001	-4.077426217901997E-003	2.000000000000000E+000	-3.1862804E-004	1.3697737E-006
2	0	0	1	1	1.108506971996758E+002	-3.3909357E-001	-3.3927542E-001	-4.136864026899979E-003	2.000000000000000E+000	-3.1931826E-004	1.4035363E-006
2	0	0	0	1	1.110172971954671E+002	-3.4242564E-001	-3.4264892E-001	-4.194864874816559E-003	2.000000000000000E+000	-3.2001827E-004	1.4373659E-006
2	0	0	1	1	1.111838971912584E+002	-3.4575769E-001	-3.4596854E-001	-4.251806589722906E-003	2.000000000000000E+000	-3.2072782E-004	1.4709914E-006
2	0	0	0	1	1.113504971870498E+002	-3.4908974E-001	-3.4928069E-001	-4.310682323712296E-003	2.000000000000000E+000	-3.2144706E-004	1.5056381E-006
2	0	0	1	1	1.115170971828411E+002	-3.5242140E-001	-3.5263041E-001	-4.370168241535077E-003	2.000000000000000E+000	-3.2217617E-004	1.5410542E-006
2	0	0	0	1	1.116836971786324E+002	-3.5575345E-001	-3.5597017E-001	-4.428379374241273E-003	2.000000000000000E+000	-3.2291500E-004	1.5763710E-006
2	0	0	1	1	1.118502971744238E+002	-3.5908547E-001	-3.5928896E-001	-4.486152971778505E-003	2.000000000000000E+000	-3.2366355E-004	1.6118253E-006
2	0	0	0	1	1.120168971702151E+002	-3.6241755E-001	-3.6260691E-001	-4.543379813265053E-003	2.000000000000000E+000	-3.2442171E-004	1.6474610E-006
2	0	0	1	1	1.121834971660064E+002	-3.6574960E-001	-3.6594471E-001	-4.601666280944262E-003	2.000000000000000E+000	-3.2518944E-004	1.6839555E-006
2	0	0	0	1	1.123500971617977E+002	-3.6908171E-001	-3.6927134E-001	-4.658374532031259E-003	2.000000000000000E+000	-3.2596674E-004	1.7202042E-006
2	0	0	1	1	1.125166971575891E+002	-3.7241331E-001	-3.7263033E-001	-4.716366625715507E-003	2.000000000000000E+000	-3.2675368E-004	1.7574613E-006
2	0	0	0	1	1.126832971533804E+002	-3.7574536E-001	-3.7595892E-001	-4.772619160544209E-003	2.000000000000000E+000	-3.2755022E-004	1.7943088E-006
2	0	0	1	1	1.128498971491717E+002	-3.7907743E-001	-3.7928739E-001	-4.829005720594651E-003	2.000000000000000E+000	-3.2835605E-004	1.8315810E-006
2	0	0	0	1	1.130164971449631E+002	-3.8240951E-001	-3.8262105E-001	-4.886724421946487E-003	2.000000000000000E+000	-3.2917148E-004	1.8697637E-006
2	0	0	1	1	1.131830971407544E+002	-3.8574159E-001	-3.8597712E-001	-4.942949838055464E-003	2.000000000000000E+000	-3.2999631E-004	1.9078655E-006
2	0	0	0	1	1.133496971365457E+002	-3.8907361E-001	-3.8930029E-001	-4.997973368207825E-003	2.000000000000000E+000	-3.3083034E-004	1.9457125E-006
2	0	0	1	1	1.135163971323345E+002	-3.9240751E-001	-3.9264271E-001	-5.053275919114281E-003	2.000000000000000E+000	-3.3167409E-004	1.9841320E-006
2	0	0	0	1	1.136829971281259E+002	-3.9573956E-001	-3.9596704E-001	-5.108088216795873E-003	2.000000000000000E+000	-3.3252654E-004	2.0226346E-006
2	0	0	1	1	1.138495971239172E+002	-3.9907160E-001	-3.9929044E-001	-5.161262925637997E-003	2.000000000000000E+000	-3.3338796E-004	2.0608429E-006
2	0	0	0	1	1.140161971197085E+002	-4.0240368E-001	-4.0263572E-001	-5.215294315276314E-003	2.000000000000000E+000	-3.3425834E-004	2.0998639E-006
2	0	0	1	1	1.141827971154999E+002	-4.0573579E-001	-4.0594703E-001	-5.266921589985697E-003	2.000000000000000E+000	-3.3513753E-004	2.1380911E-006
2	0	0	0	1	1.143493971112912E+002	-4.0906778E-001	-4.0927559E-001	-5.320544946684852E-003	2.000000000000000E+000	-3.3602549E-004	2.1775693E-006
2	0	0	1	1	1.145159971070825E+002	-4.1239989E-001	-4.1261640E-001	-5.371816439230528E-003	2.000000000000000E+000	-3.3692209E-004	2.2164995E-006
2	0	0	0	1	1.146825971028738E+002	-4.1573152E-001	-4.1595381E-001	-5.424779955493661E-003	2.000000000000000E+000	-3.3782740E-004	2.2564579E-006
2	0	0	1	1	1.148491970986652E+002	-4.1906357E-001	-4.1928145E-001	-5.472847382384474E-003	2.000000000000000E+000	-3.3874126E-004	2.2946633E-006
2	0	0	0	1	1.150157970944565E+002	-4.2239562E-001	-4.2262086E-001	-5.522561901402573E-003	2.000000000000000E+000	-3.3966327E-004	2.3339499E-006
2	0	0	1	1	1.151823970902478E+002	-4.2572770E-001	-4.2593408E-001	-5.569735410076090E-003	2.000000000000000E+000	-3.4059334E-004	2.3723401E-006
2	0	0	0	1	1.153489970860392E+002	-4.2905974E-001	-4.2925248E-001	-5.617528285489878E-003	2.000000000000000E+000	-3.4153127E-004	2.4113378E-006
2	0	0	1	1	1.155155970818305E+002	-4.3239185E-001	-4.3257567E-001	-5.664545416698710E-003	2.000000000000000E+000	-3.4247708E-004	2.4503445E-006
2	0	0	0	1	1.156821970776218E+002	-4.3572345E-001	-4.3592918E-001	-5.712006823676563E-003	2.000000000000000E+000	-3.4343087E-004	2.4900305E-006
2	0	0	1	1	1.158487970734132E+002	-4.3905550E-001	-4.3926793E-001	-5.758582439283996E-003	2.000000000000000E+000	-3.4439247E-004	2.5295606E-006
2	0	0	0	1	1.160153970692045E+002	-4.4238755E-001	-4.4258916E-001	-5.802410307494885E-003	2.000000000000000E+000	-3.4536156E-004	2.5680840E-006
2	0	0	1	1	1.161819970649958E+002	-4.4571960E-001	-4.4591787E-001	-5.846455104725715E-003	2.000000000000000E+000	-3.4633797E-004	2.6070388E-006
2	0	0	0	1	1.163485970607871E+002	-4.4905171E-001	-4.4923860E-001	-5.888276400157655E-003	2.000000000000000E+000	-3.4732150E-004	2.6452410E-006
2	0	0	1	1	1.165151970565785E+002	-4.5238376E-001	-4.5256719E-001	-5.930793450808217E-003	2.000000000000000E+000	-3.4831211E-004	2.6840826E-006
2	0	0	0	1	1.166817970523698E+002	-4.5571536E-001	-4.5589972E-001	-5.970974058397444E-003	2.000000000000000E+000	-3.4930956E-004	2.7221654E-006
2	0	0	1	1	1.168483970481611E+002	-4.5904741E-001	-4.5925513E-001	-6.012746040640692E-003	2.000000000000000E+000	-3.5031390E-004	2.7613844E-006
2	0	0	0	1	1.170149970439525E+002	-4.6237949E-001	-4.6258661E-001	-6.051195207629534E-003	2.000000000000000E+000	-3.5132506E-004	2.7992019E-006
2	0	0	1	1	1.171815970397438E+002	-4.6571153E-001	-4.6590620E-001	-6.090847486956277E-003	2.000000000000000E+000	-3.5234264E-004	2.8377635E-006
2	0	0	0	1	1.173481970355351E+002	-4.6904364E-001	-4.6926337E-001	-6.130405151887737E-003	2.000000000000000E+000	-3.5336678E-004	2.8767747E-006
2	0	0	1	1	1.175147970313265E+002	-4.7237569E-001	-4.7259125E-001	-6.169562760204986E-003	2.000000000000000E+000	-3.5439749E-004	2.9156813E-006
2	0	0	0	1	1.176813970271178E+002	-4.7570780E-001	-4.7592291E-001	-6.205350674341695E-003	2.000000000000000E+000	-3.5543437E-004	2.9532687E-006
2	0	0	1	1	1.178479970229091E+002	-4.7903979E-001	-4.7924939E-001	-6.240497524232932E-003	2.000000000000000E+000	-3.5647734E-004	2.9907546E-006
2	0	0	0	1	1.180145970187004E+002	-4.8237145E-001	-4.8258910E-001	-6.278044974608214E-003	2.000000000000000E+000	-3.5752627E-004	3.0297160E-006
2	0	0	1	1	1.181811970144918E+002	-4.8570353E-001	-4.8591915E-001	-6.314178763098879E-003	2.000000000000000E+000	-3.5858128E-004	3.0681804E-006
2	0	0	0	1	1.183477970102831E+002	-4.8903558E-001	-4.8925573E-001	-6.346811669081284E-003	2.000000000000000E+000	-3.5964206E-004	3.1052139E-006
2	0	0	1	1	1.185143970060744E+002	-4.9236763E-001	-4.9257860E-001	-6.382713927147565E-003	2.000000000000000E+000	-3.6070863E-004	3.1439884E-006
2	0	0	0	1	1.186809970018658E+002	-4.9569967E-001	-4.9590155E-001	-6.418204562753993E-003	2.000000000000000E+000	-3.6178113E-004	3.1827976E-006
2	0	0	1	1	1.188475969976571E+002	-4.9903172E-001	-4.9925986E-001	-6.450663381235636E-003	2.000000000000000E+000	-3.6285931E-004	3.2205573E-006
2	0	0	0	1	1.190141969934484E+002	-5.0236332E-001	-5.0258970E-001	-6.487730242548978E-003	2.000000000000000E+000	-3.6394334E-004	3.2606665E-006
2	0	0	1	1	1.191807969892398E+002	-5.0569540E-001	-5.0590658E-001	-6.519528398142474E-003	2.000000000000000E+000	-3.6503287E-004	3.2982723E-006
2	0	0	0	1	1.193473969850311E+002	-5.0902748E-001	-5.0924128E-001	-6.552602079101091E-003	2.000000000000000E+000	-3.6612796E-004	3.3368556E-006
2	0	0	1	1	1.195139969808224E+002	-5.1235956E-001	-5.1256615E-001	-6.588311112729395E-003	2.000000000000000E+000	-3.6722870E-004	3.3769452E-006
2	0	0	0	1	1.196805969766137E+002	-5.1569158E-001	-5.1589090E-001	-6.621462861487827E-003	2.000000000000000E+000	-3.6833517E-004	3.4159525E-006
2	0	0	1	1	1.198471969724051E+002	-5.1902372E-001	-5.1924038E-001	-6.656612567057657E-003	2.000000000000000E+000	-3.6944740E-004	3.4563820E-006
2	0	0	0	1	1.200137969681964E+002	-5.2235532E-001	-5.2255768E-001	-6.690819605723514E-003	2.000000000000000E+000	-3.7056548E-004	3.4963391E-006
2	0	0	1	1	1.201803969639877E+002	-5.2568740E-001	-5.2591163E-001	-6.726174707702592E-003	2.000000000000000E+000	-3.7168921E-004	3.5373735E-006
2	0	0	0	1	1.203469969597791E+002	-5.2901942E-001	-5.2923161E-001	-6.760461706418135E-003	2.000000000000000E+000	-3.7281885E-004	3.5778501E-006
2	0	0	1	1	1.205135969555704E+002	-5.3235149E-001	-5.3254604E-001	-6.796008234417644E-003	2.000000000000000E+000	-3.7395427E-004	3.6191873E-006
2	0	0	0	1	1.206801969513617E+002	-5.3568357E-001	-5.3589272E-001	-6.832799455355830E-003	2.000000000000000E+000	-3.7509567E-004	3.6616475E-006
2	0	0	1	1	1.208467969471531E+002	-5.3901565E-001	-5.3921217E-001	-6.868792895403805E-003	2.000000000000000E+000	-3.7624323E-004	3.7037366E-006
2	0	0	1	1	1.210134969429419E+002	-5.4234940E-001	-5.4254490E-001	-6.906137885228127E-003	2.000000000000000E+000	-3.7739761E-004	3.7468899E-006
2	0	0	0	1	1.211800969387332E+002	-5.4568148E-001	-5.4588771E-001	-6.945856357209833E-003	2.000000000000000E+000	-3.7855777E-004	3.7916577E-006
2	0	0	1	1	1.213466969345245E+002	-5.4901356E-001	-5.4922241E-001	-6.984750369399828E-003	2.000000000000000E+000	-3.7972437E-004	3.8361813E-006
2	0	0	0	1	1.215132969303158E+002	-5.5234563E-001	-5.5255234E-001	-7.023128562480913E-003	2.000000000000000E+000	-3.8089740E-004	3.8806461E-006
2	0	0	1	1	1.216798969261072E+002	-5.5567765E-001	-5.5590934E-001	-7.061946816326908E-003	2.000000000000000E+000	-3.8207709E-004	3.9258020E-006
2	0	0	0	1	1.218464969218985E+002	-5.5900967E-001	-5.5924398E-001	-7.105382787518599E-003	2.000000000000000E+000	-3.8326360E-004	3.9736424E-006
2	0	0	1	1	1.220130969176898E+002	-5.6234175E-001	-5.6255352E-001	-7.147744613269280E-003	2.000000000000000E+000	-3.8445712E-004	4.0209889E-006
2	0	0	0	1	1.221796969134812E+002	-5.6567341E-001	-5.6590861E-001	-7.188271221751485E-003	2.000000000000000E+000	-3.8565765E-004	4.0679047E-006
2	0	0	1	1	1.223462969092725E+002	-5.6900549E-001	-5.6923252E-001	-7.228702444451618E-003	2.000000000000000E+000	-3.8686502E-004	4.1148123E-006
2	0	0	0	1	1.225128969050638E+002	-5.7233757E-001	-5.7256186E-001	-7.272634877233564E-003	2.000000000000000E+000	-3.8807944E-004	4.1640333E-006
2	0	0	1	1	1.226794969008552E+002	-5.7566959E-001	-5.7590556E-001	-7.320715420801371E-003	2.000000000000000E+000	-3.8930145E-004	4.2160409E-006
2	0	0	0	1	1.228460968966465E+002	-5.7900167E-001	-5.7920694E-001	-7.364047602823567E-003	2.000000000000000E+000	-3.9053091E-004	4.2653073E-006
2	0	0	1	1	1.230126968924378E+002	-5.8233368E-001	-5.8254737E-001	-7.409067568446073E-003	2.000000000000000E+000	-3.9176768E-004	4.3161326E-006
2	0	0	0	1	1.231792968882291E+002	-5.8566535E-001	-5.8589625E-001	-7.455796337302714E-003	2.000000000000000E+000	-3.9301219E-004	4.3683231E-006
2	0	0	1	1	1.233458968840205E+002	-5.8899742E-001	-5.8923143E-001	-7.506653333961555E-003	2.000000000000000E+000	-3.9426491E-004	4.4231560E-006
2	0	0	0	1	1.235124968798118E+002	-5.9232944E-001	-5.9255761E-001	-7.551204375542256E-003	2.000000000000000E+000	-3.9552533E-004	4.4745234E-006
2	0	0	1	1	1.236790968756031E+002	-5.9566152E-001	-5.9589809E-001	-7.592898095214462E-003	2.000000000000000E+000	-3.9679327E-004	4.5245934E-006
2	0	0	0	1	1.238290968718138E+002	-5.9866130E-001	-5.9887576E-001	-7.641161559384824E-003	2.000000000000000E+000	-3.9794130E-004	4.5761062E-006
2	0	0	1	1	1.238877968703309E+002	-6.0016018E-001	-6.0034794E-001	-7.810963317751884E-003	2.000000000000000E+000	-3.9839215E-004	4.6892956E-006