EC-Lab ASCII FILE
Nb header lines : 53                          

Cyclic Voltammetry

Run on channel : 1 (SN 0696)
User : 
Electrode connection : standard
Ewe ctrl range : min = -10.00 V, max = 10.00 V
Ewe,I filtering : 50 kHz
Channel : Grounded
Acquisition started on : 05/17/2017 13:04:41
Saved on :
	File : 100 uM RS 10mM SHU_05_CV_C01.mpr
	Directory : \\userfs\st659\w2k\EC-Lab\Data\ITO Characterisation 17-5-17\
	Host : 144.32.136.43
Device : SP-300 (SN 0182)
Address : USB
EC-Lab for windows v10.44 (software)
Internet server v10.44 (firmware)
Command interpretor v10.44 (firmware)
Electrode material : 
Initial state : 
Electrolyte : 
Comments : 
Cable : standard
Electrode surface area : 0.001 cm²
Characteristic mass : 0.001 g
Equivalent Weight : 0.000 g/eq.
Density : 0.000 g/cm3
Ei (V)              0.000               
vs.                 Eoc                 
dE/dt               500.000             
dE/dt unit          mV/s                
E1 (V)              0.100               
vs.                 Ref                 
Step percent        50                  
N                   10                  
E range min (V)     -10.000             
E range max (V)     10.000              
I Range             Auto                
I Range min         Unset               
I Range max         Unset               
I Range init        Unset               
Bandwidth           8                   
E2 (V)              -0.600              
vs.                 Ref                 
nc cycles           2                   
Reverse Scan        1                   
Ef (V)              0.000               
vs.                 Eoc                 

mode	ox/red	error	control changes	counter inc.	time/s	control/V	Ewe/V	<I>/mA	cycle number	(Q-Qo)/C	P/W
2	1	0	0	1	4.189445894165692E+002	-6.0016018E-001	-6.0037082E-001	-1.201050449162722E-002	2.000000000000000E+000	-7.4631880E-006	7.2107564E-006
2	1	0	0	1	4.189483894164732E+002	-5.9829438E-001	-5.9850669E-001	-1.062028784460078E-002	2.000000000000000E+000	-7.5040716E-006	6.3563134E-006
2	1	0	1	1	4.189549894163065E+002	-5.9499562E-001	-5.9523952E-001	-9.649804017196062E-003	2.000000000000000E+000	-7.5702824E-006	5.7439447E-006
2	1	0	0	1	4.189615894161398E+002	-5.9169686E-001	-5.9192252E-001	-9.138089563566581E-003	2.000000000000000E+000	-7.6317529E-006	5.4090410E-006
2	1	0	0	1	4.189683894159680E+002	-5.8829814E-001	-5.8854532E-001	-8.753184057907953E-003	2.000000000000000E+000	-7.6920796E-006	5.1516454E-006
2	1	0	1	1	4.189749894158012E+002	-5.8499944E-001	-5.8521163E-001	-8.418121140008811E-003	2.000000000000000E+000	-7.7482646E-006	4.9263826E-006
2	1	0	0	1	4.189815894156345E+002	-5.8170074E-001	-5.8191884E-001	-8.124930754881143E-003	2.000000000000000E+000	-7.8023613E-006	4.7280500E-006
2	1	0	0	1	4.189883894154627E+002	-5.7830197E-001	-5.7854182E-001	-7.845783813900192E-003	2.000000000000000E+000	-7.8561716E-006	4.5391139E-006
2	1	0	1	1	4.189949894152960E+002	-5.7500321E-001	-5.7522261E-001	-7.595095525539358E-003	2.000000000000000E+000	-7.9066549E-006	4.3688706E-006
2	1	0	0	1	4.190015894151293E+002	-5.7170451E-001	-5.7194334E-001	-7.351133322784642E-003	2.000000000000000E+000	-7.9555084E-006	4.2044317E-006
2	1	0	0	1	4.190082894149600E+002	-5.6832755E-001	-5.6857044E-001	-7.122405033442192E-003	2.000000000000000E+000	-8.0035488E-006	4.0495888E-006
2	1	0	1	1	4.190149894147908E+002	-5.6497371E-001	-5.6520736E-001	-6.915146187505633E-003	2.000000000000000E+000	-8.0500940E-006	3.9084916E-006
2	1	0	0	1	4.190215894146240E+002	-5.6167501E-001	-5.6190532E-001	-6.720778268694022E-003	2.000000000000000E+000	-8.0946375E-006	3.7764412E-006
2	1	0	1	1	4.190281894144573E+002	-5.5837625E-001	-5.5861723E-001	-6.541285479882697E-003	2.000000000000000E+000	-8.1379249E-006	3.6540748E-006
2	1	0	1	1	4.190349894142855E+002	-5.5497754E-001	-5.5522108E-001	-6.345264733014708E-003	2.000000000000000E+000	-8.1812614E-006	3.5230248E-006
2	1	0	0	1	4.190415894141188E+002	-5.5167878E-001	-5.5190253E-001	-6.176470066020540E-003	2.000000000000000E+000	-8.2221386E-006	3.4088096E-006
2	1	0	1	1	4.190481894139521E+002	-5.4838002E-001	-5.4858148E-001	-6.014486546094627E-003	2.000000000000000E+000	-8.2618981E-006	3.2994360E-006
2	1	0	1	1	4.190549894137803E+002	-5.4498136E-001	-5.4520446E-001	-5.853164136897251E-003	2.000000000000000E+000	-8.3017849E-006	3.1911711E-006
2	1	0	0	1	4.190615894136135E+002	-5.4168266E-001	-5.4189181E-001	-5.698547946424978E-003	2.000000000000000E+000	-8.3394552E-006	3.0879964E-006
2	1	0	1	1	4.190681894134468E+002	-5.3838390E-001	-5.3859955E-001	-5.556457469659409E-003	2.000000000000000E+000	-8.3761388E-006	2.9927055E-006
2	1	0	1	1	4.190749894132750E+002	-5.3498518E-001	-5.3518993E-001	-5.412227766767808E-003	2.000000000000000E+000	-8.4129751E-006	2.8965699E-006
2	1	0	0	1	4.190815894131083E+002	-5.3168643E-001	-5.3191286E-001	-5.284646343109947E-003	2.000000000000000E+000	-8.4478297E-006	2.8109714E-006
2	1	0	1	1	4.190881894129416E+002	-5.2838767E-001	-5.2862281E-001	-5.148026177327361E-003	2.000000000000000E+000	-8.4817912E-006	2.7213641E-006
2	1	0	1	1	4.190949894127698E+002	-5.2498895E-001	-5.2520502E-001	-5.024779651891242E-003	2.000000000000000E+000	-8.5159099E-006	2.6390394E-006
2	1	0	0	1	4.191015894126031E+002	-5.2169019E-001	-5.2191585E-001	-4.900882385118155E-003	2.000000000000000E+000	-8.5482170E-006	2.5578481E-006
2	1	0	1	1	4.191081894124363E+002	-5.1839143E-001	-5.1860970E-001	-4.774502489029438E-003	2.000000000000000E+000	-8.5796964E-006	2.4761034E-006
2	1	0	1	1	4.191149894122645E+002	-5.1499277E-001	-5.1520771E-001	-4.662465872752361E-003	2.000000000000000E+000	-8.6113241E-006	2.4021383E-006
2	1	0	0	1	4.191215894120978E+002	-5.1169407E-001	-5.1191211E-001	-4.551364145663657E-003	2.000000000000000E+000	-8.6412874E-006	2.3298985E-006
2	1	0	1	1	4.191281894119311E+002	-5.0839531E-001	-5.0861126E-001	-4.436149599253730E-003	2.000000000000000E+000	-8.6704886E-006	2.2562756E-006
2	1	0	1	1	4.191349894117593E+002	-5.0499660E-001	-5.0522286E-001	-4.332479060273418E-003	2.000000000000000E+000	-8.6998498E-006	2.1888675E-006
2	1	0	0	1	4.191415894115926E+002	-5.0169784E-001	-5.0191903E-001	-4.226036869234402E-003	2.000000000000000E+000	-8.7276567E-006	2.1211283E-006
2	1	0	1	1	4.191481894114258E+002	-4.9839908E-001	-4.9861586E-001	-4.126071541880549E-003	2.000000000000000E+000	-8.7547660E-006	2.0573248E-006
2	1	0	1	1	4.191549894112541E+002	-4.9500039E-001	-4.9520463E-001	-4.027721451529928E-003	2.000000000000000E+000	-8.7820245E-006	1.9945462E-006
2	1	0	0	1	4.191615894110873E+002	-4.9170163E-001	-4.9190444E-001	-3.928519406144908E-003	2.000000000000000E+000	-8.8078368E-006	1.9324561E-006
2	1	0	1	1	4.191834894105341E+002	-4.8072591E-001	-4.8094359E-001	-3.632458004111841E-003	2.000000000000000E+000	-8.8890820E-006	1.7470074E-006
2	1	0	0	1	4.192055894099758E+002	-4.6967676E-001	-4.6987677E-001	-3.323846280242520E-003	2.000000000000000E+000	-8.9689865E-006	1.5617982E-006
2	1	0	1	1	4.192121894098091E+002	-4.6637797E-001	-4.6653947E-001	-3.233459096069643E-003	2.000000000000000E+000	-8.9903951E-006	1.5085363E-006
2	1	0	0	1	4.192187894096423E+002	-4.6307921E-001	-4.6324781E-001	-3.161454969873981E-003	2.000000000000000E+000	-9.0112471E-006	1.4645370E-006
2	1	0	0	1	4.192255894094706E+002	-4.5968053E-001	-4.5985669E-001	-3.079718242255090E-003	2.000000000000000E+000	-9.0322073E-006	1.4162290E-006
2	1	0	1	1	4.192321894093038E+002	-4.5638177E-001	-4.5656276E-001	-2.999464094106469E-003	2.000000000000000E+000	-9.0520252E-006	1.3694436E-006
2	1	0	0	1	4.192387894091371E+002	-4.5308304E-001	-4.5323488E-001	-2.922866323751806E-003	2.000000000000000E+000	-9.0713247E-006	1.3247450E-006
2	1	0	0	1	4.192455894089653E+002	-4.4968435E-001	-4.4985247E-001	-2.847862541087424E-003	2.000000000000000E+000	-9.0907115E-006	1.2811180E-006
2	1	0	1	1	4.192521894087986E+002	-4.4638556E-001	-4.4656128E-001	-2.778015310832414E-003	2.000000000000000E+000	-9.1090487E-006	1.2405541E-006
2	1	0	0	1	4.192587894086319E+002	-4.4308686E-001	-4.4325498E-001	-2.703775593878764E-003	2.000000000000000E+000	-9.1268930E-006	1.1984620E-006
2	1	0	0	1	4.192655894084601E+002	-4.3968818E-001	-4.3987367E-001	-2.632496329988493E-003	2.000000000000000E+000	-9.1447882E-006	1.1579658E-006
2	1	0	1	1	4.192721894082933E+002	-4.3638939E-001	-4.3656644E-001	-2.555623276748506E-003	2.000000000000000E+000	-9.1616830E-006	1.1156993E-006
2	1	0	0	1	4.192787894081266E+002	-4.3309072E-001	-4.3326479E-001	-2.487085098012657E-003	2.000000000000000E+000	-9.1780812E-006	1.0775664E-006
2	1	0	0	1	4.192855894079548E+002	-4.2969197E-001	-4.2985579E-001	-2.424228433786382E-003	2.000000000000000E+000	-9.1945276E-006	1.0420687E-006
2	1	0	1	1	4.192921894077881E+002	-4.2639327E-001	-4.2657652E-001	-2.355844264063003E-003	2.000000000000000E+000	-9.2100736E-006	1.0049479E-006
2	1	0	0	1	4.192987894076214E+002	-4.2309451E-001	-4.2328966E-001	-2.292853767418509E-003	2.000000000000000E+000	-9.2251676E-006	9.7054124E-007
2	1	0	0	1	4.193055894074496E+002	-4.1969576E-001	-4.1987956E-001	-2.224289088311097E-003	2.000000000000000E+000	-9.2402697E-006	9.3393351E-007
2	1	0	1	1	4.193121894072829E+002	-4.1639706E-001	-4.1658509E-001	-2.157508683800789E-003	2.000000000000000E+000	-9.2545079E-006	8.9878597E-007
2	1	0	0	1	4.193187894071161E+002	-4.1309834E-001	-4.1329005E-001	-2.094867668347431E-003	2.000000000000000E+000	-9.2683049E-006	8.6578797E-007
2	1	0	0	1	4.193255894069443E+002	-4.0969959E-001	-4.0988716E-001	-2.033302542410327E-003	2.000000000000000E+000	-9.2820837E-006	8.3342462E-007
2	1	0	1	1	4.193321894067776E+002	-4.0640086E-001	-4.0658030E-001	-1.967747172723949E-003	2.000000000000000E+000	-9.2950640E-006	8.0004725E-007
2	1	0	0	1	4.193387894066109E+002	-4.0310213E-001	-4.0330294E-001	-1.915442591295381E-003	2.000000000000000E+000	-9.3076442E-006	7.7250360E-007
2	1	0	0	1	4.193455894064391E+002	-3.9970338E-001	-3.9990106E-001	-1.852334145223716E-003	2.000000000000000E+000	-9.3202016E-006	7.4075041E-007
2	1	0	1	1	4.193521894062724E+002	-3.9640468E-001	-3.9661008E-001	-1.793399318254762E-003	2.000000000000000E+000	-9.3319995E-006	7.1128022E-007
2	1	0	0	1	4.193587894061056E+002	-3.9307261E-001	-3.9327481E-001	-1.724490074108563E-003	2.000000000000000E+000	-9.3433655E-006	6.7819849E-007
2	1	0	1	1	4.193653894059389E+002	-3.8977385E-001	-3.8997591E-001	-1.674129273487777E-003	2.000000000000000E+000	-9.3543413E-006	6.5287009E-007
2	1	0	1	1	4.193721894057671E+002	-3.8637516E-001	-3.8657871E-001	-1.622458410959850E-003	2.000000000000000E+000	-9.3653061E-006	6.2720790E-007
2	1	0	0	1	4.193787894056004E+002	-3.8307643E-001	-3.8328114E-001	-1.564412718971650E-003	2.000000000000000E+000	-9.3755889E-006	5.9960990E-007
2	1	0	1	1	4.193853894054337E+002	-3.7977767E-001	-3.7995169E-001	-1.505770281073635E-003	2.000000000000000E+000	-9.3854696E-006	5.7211997E-007
2	1	0	1	1	4.193921894052619E+002	-3.7637895E-001	-3.7655172E-001	-1.458817663691055E-003	2.000000000000000E+000	-9.3952967E-006	5.4932030E-007
2	1	0	0	1	4.193987894050952E+002	-3.7308019E-001	-3.7325421E-001	-1.403291425306936E-003	2.000000000000000E+000	-9.4045172E-006	5.2378442E-007
2	1	0	1	1	4.194053894049284E+002	-3.6978146E-001	-3.6994705E-001	-1.347536240549134E-003	2.000000000000000E+000	-9.4133538E-006	4.9851707E-007
2	1	0	1	1	4.194121894047566E+002	-3.6638275E-001	-3.6655900E-001	-1.300204105564261E-003	2.000000000000000E+000	-9.4221095E-006	4.7660151E-007
2	1	0	0	1	4.194187894045899E+002	-3.6308405E-001	-3.6327061E-001	-1.248913709650875E-003	2.000000000000000E+000	-9.4302904E-006	4.5369364E-007
2	1	0	1	1	4.194253894044232E+002	-3.5978526E-001	-3.5997924E-001	-1.202031879802232E-003	2.000000000000000E+000	-9.4381376E-006	4.3270651E-007
2	1	0	1	1	4.194321894042514E+002	-3.5638660E-001	-3.5657457E-001	-1.146111419302541E-003	2.000000000000000E+000	-9.4458810E-006	4.0867417E-007
2	1	0	0	1	4.194387894040847E+002	-3.5308784E-001	-3.5327271E-001	-1.098979227511638E-003	2.000000000000000E+000	-9.4530778E-006	3.8823936E-007
2	1	0	1	1	4.194453894039179E+002	-3.4978911E-001	-3.4998441E-001	-1.052361898412828E-003	2.000000000000000E+000	-9.4599336E-006	3.6831025E-007
2	1	0	1	1	4.194521894037462E+002	-3.4639040E-001	-3.4659630E-001	-1.002441823144785E-003	2.000000000000000E+000	-9.4666702E-006	3.4744264E-007
2	1	0	0	1	4.194587894035794E+002	-3.4309167E-001	-3.4328479E-001	-9.575632480997819E-004	2.000000000000000E+000	-9.4729139E-006	3.2871691E-007
2	1	0	1	1	4.194653894034127E+002	-3.3979291E-001	-3.3998066E-001	-9.067312530684525E-004	2.000000000000000E+000	-9.4788229E-006	3.0827110E-007
2	1	0	1	1	4.194721894032409E+002	-3.3639419E-001	-3.3656600E-001	-8.607795563875687E-004	2.000000000000000E+000	-9.4845800E-006	2.8970913E-007
2	1	0	0	1	4.194787894030742E+002	-3.3309546E-001	-3.3328304E-001	-8.208712419370059E-004	2.000000000000000E+000	-9.4898987E-006	2.7358246E-007
2	1	0	1	1	4.194853894029075E+002	-3.2979670E-001	-3.2995263E-001	-7.749786339066554E-004	2.000000000000000E+000	-9.4949137E-006	2.5570623E-007
2	1	0	1	1	4.194921894027357E+002	-3.2639802E-001	-3.2655081E-001	-7.239118315965215E-004	2.000000000000000E+000	-9.4997622E-006	2.3639400E-007
2	1	0	0	1	4.194987894025689E+002	-3.2309929E-001	-3.2324788E-001	-6.872507693894189E-004	2.000000000000000E+000	-9.5042005E-006	2.2215235E-007
2	1	0	1	1	4.195053894024022E+002	-3.1980053E-001	-3.1993905E-001	-6.459050727623122E-004	2.000000000000000E+000	-9.5083615E-006	2.0665026E-007
2	1	0	1	1	4.195121894022304E+002	-3.1640184E-001	-3.1656772E-001	-6.021424874612996E-004	2.000000000000000E+000	-9.5123596E-006	1.9061888E-007
2	1	0	0	1	4.195187894020637E+002	-3.1310308E-001	-3.1326851E-001	-5.616880544721432E-004	2.000000000000000E+000	-9.5159621E-006	1.7595919E-007
2	1	0	1	1	4.195253894018970E+002	-3.0980435E-001	-3.0998373E-001	-5.198223055534372E-004	2.000000000000000E+000	-9.5192800E-006	1.6113646E-007
2	1	0	1	1	4.195320894017277E+002	-3.0643892E-001	-3.0660680E-001	-4.662964726211889E-004	2.000000000000000E+000	-9.5223450E-006	1.4296967E-007
2	1	0	0	1	4.195387894015585E+002	-3.0307356E-001	-3.0324340E-001	-4.332771947929342E-004	2.000000000000000E+000	-9.5251144E-006	1.3138845E-007
2	1	0	1	1	4.195453894013917E+002	-2.9977483E-001	-2.9993534E-001	-3.947242603392909E-004	2.000000000000000E+000	-9.5276255E-006	1.1839175E-007
2	1	0	0	1	4.195519894012250E+002	-2.9647610E-001	-2.9663107E-001	-3.509932183646922E-004	2.000000000000000E+000	-9.5298374E-006	1.0411549E-007
2	1	0	0	1	4.195587894010532E+002	-2.9307738E-001	-2.9321906E-001	-3.132724614753582E-004	2.000000000000000E+000	-9.5318464E-006	9.1857459E-008
2	1	0	1	1	4.195653894008865E+002	-2.8977865E-001	-2.8991389E-001	-2.760933439276406E-004	2.000000000000000E+000	-9.5335636E-006	8.0043293E-008
2	1	0	0	1	4.195719894007198E+002	-2.8647989E-001	-2.8662419E-001	-2.358067168340009E-004	2.000000000000000E+000	-9.5350106E-006	6.7587912E-008
2	1	0	0	1	4.195787894005480E+002	-2.8308117E-001	-2.8319895E-001	-1.964276394706599E-004	2.000000000000000E+000	-9.5362320E-006	5.5628103E-008
2	1	0	1	1	4.195853894003812E+002	-2.7978247E-001	-2.7991819E-001	-1.593852086765918E-004	2.000000000000000E+000	-9.5371834E-006	4.4614819E-008
2	1	0	0	1	4.195919894002145E+002	-2.7648371E-001	-2.7663276E-001	-1.256963196643334E-004	2.000000000000000E+000	-9.5378864E-006	3.4771720E-008
2	1	0	0	1	4.195987894000427E+002	-2.7308503E-001	-2.7323496E-001	-8.364648233415057E-005	2.000000000000000E+000	-9.5383512E-006	2.2855144E-008
2	1	0	1	1	4.196053893998760E+002	-2.6978630E-001	-2.6993781E-001	-4.996363244534510E-005	2.000000000000000E+000	-9.5385567E-006	1.3487074E-008
2	1	0	0	1	4.196119893997093E+002	-2.6648754E-001	-2.6665184E-001	-1.222284804944793E-005	2.000000000000000E+000	-9.5385167E-006	3.2592449E-009
2	1	0	0	1	4.196187893995375E+002	-2.6308882E-001	-2.6322260E-001	3.534998872207015E-005	2.000000000000000E+000	-9.5381938E-006	9.3049159E-009
2	1	0	1	1	4.196253893993708E+002	-2.5979009E-001	-2.5994772E-001	6.144176491744695E-005	2.000000000000000E+000	-9.5376463E-006	1.5971647E-008
2	1	0	0	1	4.196319893992040E+002	-2.5649133E-001	-2.5664267E-001	1.019982429009286E-004	2.000000000000000E+000	-9.5368569E-006	2.6177101E-008
2	1	0	0	1	4.196387893990322E+002	-2.5309265E-001	-2.5327346E-001	1.342198408982170E-004	2.000000000000000E+000	-9.5358009E-006	3.3994322E-008
2	1	0	1	1	4.196453893988655E+002	-2.4979389E-001	-2.4995941E-001	1.788514255376102E-004	2.000000000000000E+000	-9.5345385E-006	4.4705597E-008
2	1	0	0	1	4.196519893986988E+002	-2.4649514E-001	-2.4665770E-001	2.114255416207330E-004	2.000000000000000E+000	-9.5330115E-006	5.2149737E-008
2	1	0	0	1	4.196587893985270E+002	-2.4309643E-001	-2.4326833E-001	2.535666000274742E-004	2.000000000000000E+000	-9.5311825E-006	6.1684723E-008
2	1	0	1	1	4.196653893983603E+002	-2.3979771E-001	-2.3995690E-001	2.867926456853334E-004	2.000000000000000E+000	-9.5291725E-006	6.8817876E-008
2	1	0	0	1	4.196719893981935E+002	-2.3649894E-001	-2.3665741E-001	3.241246495993741E-004	2.000000000000000E+000	-9.5269161E-006	7.6706499E-008
2	1	0	0	1	4.196787893980218E+002	-2.3310025E-001	-2.3325920E-001	3.561771672101121E-004	2.000000000000000E+000	-9.5243549E-006	8.3081602E-008
2	1	0	1	1	4.196853893978550E+002	-2.2980154E-001	-2.2995621E-001	4.012928518060694E-004	2.000000000000000E+000	-9.5216255E-006	9.2279784E-008
2	1	0	0	1	4.196919893976883E+002	-2.2650276E-001	-2.2669275E-001	4.286650033236573E-004	2.000000000000000E+000	-9.5186424E-006	9.7175246E-008
2	1	0	0	1	4.196987893975165E+002	-2.2310407E-001	-2.2327967E-001	4.743865747210904E-004	2.000000000000000E+000	-9.5153136E-006	1.0592088E-007
2	1	0	1	1	4.197053893973498E+002	-2.1979421E-001	-2.1996108E-001	5.188257895876354E-004	2.000000000000000E+000	-9.5118130E-006	1.1412148E-007
2	1	0	0	1	4.197119893971831E+002	-2.1647330E-001	-2.1664435E-001	5.502450699926466E-004	2.000000000000000E+000	-9.5080568E-006	1.1920748E-007
2	1	0	1	1	4.197185893970163E+002	-2.1317454E-001	-2.1333583E-001	5.866091912139397E-004	2.000000000000000E+000	-9.5040677E-006	1.2514475E-007
2	1	0	1	1	4.197253893968445E+002	-2.0977581E-001	-2.0991780E-001	6.295423802915451E-004	2.000000000000000E+000	-9.4996858E-006	1.3215215E-007
2	1	0	0	1	4.197319893966778E+002	-2.0647708E-001	-2.0663488E-001	6.621279593673531E-004	2.000000000000000E+000	-9.4952029E-006	1.3681873E-007
2	1	0	1	1	4.197385893965111E+002	-2.0317833E-001	-2.0333110E-001	7.001792919330285E-004	2.000000000000000E+000	-9.4904644E-006	1.4236822E-007
2	1	0	1	1	4.197453893963393E+002	-1.9977963E-001	-1.9991542E-001	7.404764198857591E-004	2.000000000000000E+000	-9.4853212E-006	1.4803265E-007
2	1	0	0	1	4.197519893961726E+002	-1.9648090E-001	-1.9663514E-001	7.753884790721102E-004	2.000000000000000E+000	-9.4800898E-006	1.5246863E-007
2	1	0	1	1	4.197585893960058E+002	-1.9318214E-001	-1.9331883E-001	8.101447759903176E-004	2.000000000000000E+000	-9.4746165E-006	1.5661624E-007
2	1	0	1	1	4.197653893958341E+002	-1.8978344E-001	-1.8994468E-001	8.472599620745341E-004	2.000000000000000E+000	-9.4687312E-006	1.6093253E-007
2	1	0	0	1	4.197719893956673E+002	-1.8648469E-001	-1.8665528E-001	8.916931874864524E-004	2.000000000000000E+000	-9.4627703E-006	1.6643925E-007
2	1	0	1	1	4.197785893955006E+002	-1.8318595E-001	-1.8334575E-001	9.289448050518942E-004	2.000000000000000E+000	-9.4565239E-006	1.7031809E-007
2	1	0	1	1	4.197853893953288E+002	-1.7978723E-001	-1.7994504E-001	9.671553904354413E-004	2.000000000000000E+000	-9.4498337E-006	1.7403481E-007
2	1	0	0	1	4.197919893951621E+002	-1.7648849E-001	-1.7662843E-001	1.007265771522728E-003	2.000000000000000E+000	-9.4430879E-006	1.7791177E-007
2	1	0	1	1	4.197985893949954E+002	-1.7318974E-001	-1.7335257E-001	1.043217611504590E-003	2.000000000000000E+000	-9.4360830E-006	1.8084445E-007
2	1	0	1	1	4.198053893948236E+002	-1.6979106E-001	-1.6996138E-001	1.076742177019696E-003	2.000000000000000E+000	-9.4286233E-006	1.8300459E-007
2	1	0	0	1	4.198119893946568E+002	-1.6649231E-001	-1.6663644E-001	1.123291790069442E-003	2.000000000000000E+000	-9.4211264E-006	1.8718134E-007
2	1	0	1	1	4.198185893944901E+002	-1.6319357E-001	-1.6333546E-001	1.156744510778181E-003	2.000000000000000E+000	-9.4133566E-006	1.8893739E-007
2	1	0	1	1	4.198253893943183E+002	-1.5979487E-001	-1.5992621E-001	1.199449507597216E-003	2.000000000000000E+000	-9.4050938E-006	1.9182340E-007
2	1	0	0	1	4.198319893941516E+002	-1.5649612E-001	-1.5662822E-001	1.240426801859942E-003	2.000000000000000E+000	-9.3968101E-006	1.9428585E-007
2	1	0	1	1	4.198385893939849E+002	-1.5319739E-001	-1.5333667E-001	1.276812583955692E-003	2.000000000000000E+000	-9.3882527E-006	1.9578219E-007
2	1	0	1	1	4.198453893938131E+002	-1.4979868E-001	-1.4992239E-001	1.319838560690794E-003	2.000000000000000E+000	-9.3791759E-006	1.9787335E-007
2	1	0	0	1	4.198519893936464E+002	-1.4649993E-001	-1.4664635E-001	1.353403106198435E-003	2.000000000000000E+000	-9.3701246E-006	1.9847162E-007
2	1	0	1	1	4.198585893934796E+002	-1.4320120E-001	-1.4332961E-001	1.394568925024944E-003	2.000000000000000E+000	-9.3608051E-006	1.9988302E-007
2	1	0	1	1	4.198653893933079E+002	-1.3980249E-001	-1.3995875E-001	1.438809005154933E-003	2.000000000000000E+000	-9.3509179E-006	2.0137392E-007
2	1	0	0	1	4.198719893931411E+002	-1.3650374E-001	-1.3663170E-001	1.475535102326834E-003	2.000000000000000E+000	-9.3410681E-006	2.0160486E-007
2	1	0	1	1	4.198785893929744E+002	-1.3320501E-001	-1.3333781E-001	1.519669822422048E-003	2.000000000000000E+000	-9.3309354E-006	2.0262945E-007
2	1	0	0	1	4.198851893928077E+002	-1.2987295E-001	-1.3000040E-001	1.564827581645056E-003	2.000000000000000E+000	-9.3205053E-006	2.0342821E-007
2	1	0	0	1	4.198919893926359E+002	-1.2647423E-001	-1.2660047E-001	1.601098873364511E-003	2.000000000000000E+000	-9.3094886E-006	2.0269988E-007
2	1	0	1	1	4.198985893924691E+002	-1.2317549E-001	-1.2329645E-001	1.645701405868755E-003	2.000000000000000E+000	-9.2985383E-006	2.0290915E-007
2	1	0	0	1	4.199051893923024E+002	-1.1987674E-001	-1.2000026E-001	1.677316539886915E-003	2.000000000000000E+000	-9.2873352E-006	2.0127841E-007
2	1	0	0	1	4.199119893921306E+002	-1.1647805E-001	-1.1660111E-001	1.724224030870879E-003	2.000000000000000E+000	-9.2755217E-006	2.0104643E-007
2	1	0	1	1	4.199185893919639E+002	-1.1317930E-001	-1.1328926E-001	1.761651065892999E-003	2.000000000000000E+000	-9.2637883E-006	1.9957615E-007
2	1	0	0	1	4.199251893917972E+002	-1.0988056E-001	-1.1000082E-001	1.798346735237526E-003	2.000000000000000E+000	-9.2517930E-006	1.9781962E-007
2	1	0	0	1	4.199319893916254E+002	-1.0648184E-001	-1.0659334E-001	1.843348309557770E-003	2.000000000000000E+000	-9.2391692E-006	1.9648866E-007
2	1	0	1	1	4.199385893914587E+002	-1.0318311E-001	-1.0329384E-001	1.879463190107346E-003	2.000000000000000E+000	-9.2266591E-006	1.9413696E-007
2	1	0	0	1	4.199451893912919E+002	-9.9884361E-002	-1.0000775E-001	1.916834317580648E-003	2.000000000000000E+000	-9.2138871E-006	1.9169829E-007
2	1	0	0	1	4.199519893911202E+002	-9.6485667E-002	-9.6605100E-002	1.960867996998189E-003	2.000000000000000E+000	-9.2004530E-006	1.8942985E-007
2	1	0	1	1	4.199585893909534E+002	-9.3186922E-002	-9.3296945E-002	2.003850411013762E-003	2.000000000000000E+000	-9.1871461E-006	1.8695312E-007
2	1	0	0	1	4.199651893907867E+002	-8.9888178E-002	-8.9997120E-002	2.041612796074347E-003	2.000000000000000E+000	-9.1735546E-006	1.8373927E-007
2	1	0	0	1	4.199719893906149E+002	-8.6489469E-002	-8.6620986E-002	2.079269347268570E-003	2.000000000000000E+000	-9.1593020E-006	1.8010836E-007
2	1	0	1	1	4.199785893904482E+002	-8.3190732E-002	-8.3325036E-002	2.117482044711030E-003	2.000000000000000E+000	-9.1452193E-006	1.7643927E-007
2	1	0	0	1	4.199851893902814E+002	-7.9891987E-002	-8.0043532E-002	2.160073916184054E-003	2.000000000000000E+000	-9.1308520E-006	1.7289995E-007
2	1	0	0	1	4.199919893901097E+002	-7.6493286E-002	-7.6651372E-002	2.199023741862530E-003	2.000000000000000E+000	-9.1157808E-006	1.6855819E-007
2	1	0	1	1	4.199985893899429E+002	-7.3194548E-002	-7.3343858E-002	2.241465312151077E-003	2.000000000000000E+000	-9.1008942E-006	1.6439772E-007
2	1	0	0	1	4.200051893897762E+002	-6.9895804E-002	-7.0036590E-002	2.285410813510677E-003	2.000000000000000E+000	-9.0857011E-006	1.6006238E-007
2	1	0	0	1	4.200119893896044E+002	-6.6497095E-002	-6.6640437E-002	2.321029244346087E-003	2.000000000000000E+000	-9.0697904E-006	1.5467440E-007
2	1	0	1	1	4.200185893894377E+002	-6.3198358E-002	-6.3330114E-002	2.359548879697596E-003	2.000000000000000E+000	-9.0541098E-006	1.4943051E-007
2	1	0	0	1	4.200251893892710E+002	-5.9899610E-002	-6.0031753E-002	2.404764688041426E-003	2.000000000000000E+000	-9.0381454E-006	1.4436225E-007
2	1	0	0	1	4.200319893890992E+002	-5.6500908E-002	-5.6665357E-002	2.441398988078915E-003	2.000000000000000E+000	-9.0214389E-006	1.3834274E-007
2	1	0	1	1	4.200385893889325E+002	-5.3202171E-002	-5.3365782E-002	2.482167241972397E-003	2.000000000000000E+000	-9.0049680E-006	1.3246280E-007
2	1	0	0	1	4.200451893887657E+002	-4.9903419E-002	-5.0049804E-002	2.521644806832536E-003	2.000000000000000E+000	-8.9882133E-006	1.2620782E-007
2	1	0	0	1	4.200519893885939E+002	-4.6504717E-002	-4.6670556E-002	2.556236036919776E-003	2.000000000000000E+000	-8.9707046E-006	1.1930096E-007
2	1	0	1	1	4.200585893884272E+002	-4.3172654E-002	-4.3326732E-002	2.607917864285513E-003	2.000000000000000E+000	-8.9534424E-006	1.1299256E-007
2	1	0	0	1	4.200651893882605E+002	-3.9873913E-002	-4.0010437E-002	2.635834065010086E-003	2.000000000000000E+000	-8.9359100E-006	1.0546087E-007
2	1	0	1	1	4.200717893880937E+002	-3.6575176E-002	-3.6694970E-002	2.669672403074703E-003	2.000000000000000E+000	-8.9181467E-006	9.7963550E-008
2	1	0	1	1	4.200785893879220E+002	-3.3176467E-002	-3.3310696E-002	2.705464957792475E-003	2.000000000000000E+000	-8.8996148E-006	9.0120921E-008
2	1	0	0	1	4.200851893877552E+002	-2.9877724E-002	-3.0016728E-002	2.743439147737559E-003	2.000000000000000E+000	-8.8814022E-006	8.2349068E-008
2	1	0	1	1	4.200917893875885E+002	-2.6578983E-002	-2.6688093E-002	2.773878023738990E-003	2.000000000000000E+000	-8.8629422E-006	7.4029515E-008
2	1	0	1	1	4.200985893874167E+002	-2.3180278E-002	-2.3307066E-002	2.808052929473573E-003	2.000000000000000E+000	-8.8437273E-006	6.5447473E-008
2	1	0	0	1	4.201051893872500E+002	-1.9881535E-002	-2.0007811E-002	2.836539607505982E-003	2.000000000000000E+000	-8.8248726E-006	5.6752949E-008
2	1	0	1	1	4.201117893870833E+002	-1.6582793E-002	-1.6722107E-002	2.867432771472521E-003	2.000000000000000E+000	-8.8058068E-006	4.7949520E-008
2	1	0	1	1	4.201185893869115E+002	-1.3184088E-002	-1.3322382E-002	2.894744027738256E-003	2.000000000000000E+000	-8.7859662E-006	3.8564888E-008
2	1	0	0	1	4.201251893867448E+002	-9.8853465E-003	-1.0025865E-002	2.928262759754340E-003	2.000000000000000E+000	-8.7665121E-006	2.9358368E-008
2	1	0	1	1	4.201317893865780E+002	-6.5866043E-003	-6.7213997E-003	2.958591808298191E-003	2.000000000000000E+000	-8.7468370E-006	1.9885878E-008
2	1	0	1	1	4.201385893864062E+002	-3.1878995E-003	-3.3224390E-003	2.979201824625001E-003	2.000000000000000E+000	-8.7263988E-006	9.8982165E-009
2	1	0	0	1	4.201451893862395E+002	1.2385333E-004	-5.2438976E-005	3.007162320106241E-003	2.000000000000000E+000	-8.7064227E-006	1.5769251E-010
2	1	0	1	1	4.201517893860728E+002	3.4095834E-003	3.3028976E-003	3.039335074845446E-003	2.000000000000000E+000	-8.6862192E-006	1.0038613E-008
2	1	0	1	1	4.201585893859010E+002	6.8082865E-003	6.7007761E-003	3.054777734390293E-003	2.000000000000000E+000	-8.6652581E-006	2.0469381E-008
2	1	0	0	1	4.201651893857343E+002	1.0107027E-002	9.9808853E-003	3.074170238081347E-003	2.000000000000000E+000	-8.6447999E-006	3.0682941E-008
2	1	0	1	1	4.201717893855675E+002	1.3405769E-002	1.3308814E-002	3.095012685116673E-003	2.000000000000000E+000	-8.6242044E-006	4.1190948E-008
2	1	0	1	1	4.201785893853958E+002	1.6804470E-002	1.6701033E-002	3.112820163823925E-003	2.000000000000000E+000	-8.6028440E-006	5.1987314E-008
2	1	0	0	1	4.201851893852290E+002	2.0103212E-002	2.0009950E-002	3.133032281372537E-003	2.000000000000000E+000	-8.5820111E-006	6.2691818E-008
2	1	0	1	1	4.201917893850623E+002	2.3401951E-002	2.3293553E-002	3.142670479004062E-003	2.000000000000000E+000	-8.5610600E-006	7.3203964E-008
2	1	0	1	1	4.201985893848905E+002	2.6800655E-002	2.6682341E-002	3.163873588012692E-003	2.000000000000000E+000	-8.5393722E-006	8.4419554E-008
2	1	0	0	1	4.202051893847238E+002	3.0099396E-002	2.9975677E-002	3.172754703367295E-003	2.000000000000000E+000	-8.5182292E-006	9.5105470E-008
2	1	0	1	1	4.202117893845571E+002	3.3398136E-002	3.3288408E-002	3.188359736365474E-003	2.000000000000000E+000	-8.4969943E-006	1.0613542E-007
2	1	0	1	1	4.202185893843853E+002	3.6796842E-002	3.6701169E-002	3.203269854020627E-003	2.000000000000000E+000	-8.4750063E-006	1.1756375E-007
2	1	0	0	1	4.202251893842185E+002	4.0095586E-002	3.9987955E-002	3.207287415716575E-003	2.000000000000000E+000	-8.4536241E-006	1.2825286E-007
2	1	0	1	1	4.202317893840518E+002	4.3416537E-002	4.3305710E-002	3.233871166594328E-003	2.000000000000000E+000	-8.4321291E-006	1.4004509E-007
2	1	0	0	1	4.202383893838851E+002	4.6726383E-002	4.6641711E-002	3.242064821521735E-003	2.000000000000000E+000	-8.4105268E-006	1.5121545E-007
2	1	0	0	1	4.202451893837133E+002	5.0125085E-002	5.0062232E-002	3.239392653085815E-003	2.000000000000000E+000	-8.3882560E-006	1.6217122E-007
2	1	0	1	1	4.202517893835466E+002	5.3423826E-002	5.3342082E-002	3.243324451492904E-003	2.000000000000000E+000	-8.3666373E-006	1.7300567E-007
2	1	0	0	1	4.202583893833798E+002	5.6722570E-002	5.6662004E-002	3.255559586553630E-003	2.000000000000000E+000	-8.3449340E-006	1.8446653E-007
2	1	0	0	1	4.202651893832081E+002	6.0121272E-002	6.0055360E-002	3.255902619942692E-003	2.000000000000000E+000	-8.3225486E-006	1.9553440E-007
2	1	0	1	1	4.202717893830413E+002	6.3420013E-002	6.3342720E-002	3.266680276586470E-003	2.000000000000000E+000	-8.3007981E-006	2.0692042E-007
2	1	0	0	1	4.202783893828746E+002	6.6718750E-002	6.6638865E-002	3.265273599330015E-003	2.000000000000000E+000	-8.2790093E-006	2.1759412E-007
2	1	0	0	1	4.202851893827028E+002	7.0117459E-002	7.0031650E-002	3.273712923207014E-003	2.000000000000000E+000	-8.2565421E-006	2.2926352E-007
2	1	0	1	1	4.202917893825361E+002	7.3416196E-002	7.3331535E-002	3.273291426921794E-003	2.000000000000000E+000	-8.2347187E-006	2.4003549E-007
2	1	0	0	1	4.202983893823694E+002	7.6714933E-002	7.6627791E-002	3.279704894703167E-003	2.000000000000000E+000	-8.2128545E-006	2.5131655E-007
2	1	0	0	1	4.203051893821976E+002	8.0113634E-002	8.0037504E-002	3.281622867022327E-003	2.000000000000000E+000	-8.1903027E-006	2.6265292E-007
2	1	0	1	1	4.203117893820308E+002	8.3412379E-002	8.3320163E-002	3.281538409767873E-003	2.000000000000000E+000	-8.1684211E-006	2.7341832E-007
2	1	0	0	1	4.203183893818641E+002	8.6711124E-002	8.6604014E-002	3.281093782910229E-003	2.000000000000000E+000	-8.1465269E-006	2.8415590E-007
2	1	0	0	1	4.203251893816923E+002	9.0109833E-002	9.0019964E-002	3.287317726183878E-003	2.000000000000000E+000	-8.1239505E-006	2.9592422E-007
2	1	0	1	1	4.203317893815256E+002	9.3408570E-002	9.3316346E-002	3.287613287344962E-003	2.000000000000000E+000	-8.1020335E-006	3.0678805E-007
2	1	0	0	1	4.203383893813589E+002	9.6707307E-002	9.6602179E-002	3.288265060533986E-003	2.000000000000000E+000	-8.0800910E-006	3.1765356E-007
2	1	0	0	1	4.203431893812376E+002	9.9106409E-002	9.9018872E-002	3.298878419445829E-003	2.000000000000000E+000	-8.0641157E-006	3.2665122E-007
2	0	0	1	1	4.203451893811871E+002	9.9906117E-002	9.9787883E-002	3.207063302397728E-003	2.000000000000000E+000	-8.0575255E-006	3.2002606E-007
2	0	0	1	1	4.203489893810911E+002	9.8040134E-002	9.7871311E-002	2.147721535038730E-003	2.000000000000000E+000	-8.0489735E-006	2.1020033E-007
2	0	0	0	1	4.203555893809244E+002	9.4741389E-002	9.4553739E-002	1.688080894079270E-003	2.000000000000000E+000	-8.0366835E-006	1.5961436E-007
2	0	0	1	1	4.203621893807576E+002	9.1442637E-002	9.1255516E-002	1.494846395022856E-003	2.000000000000000E+000	-8.0264572E-006	1.3641298E-007
2	0	0	1	1	4.203689893805858E+002	8.8043943E-002	8.7838560E-002	1.340483671386516E-003	2.000000000000000E+000	-8.0170839E-006	1.1774615E-007
2	0	0	0	1	4.203755893804191E+002	8.4745198E-002	8.4558643E-002	1.216994942675836E-003	2.000000000000000E+000	-8.0088848E-006	1.0290744E-007
2	0	0	1	1	4.203821893802524E+002	8.1446469E-002	8.1263714E-002	1.106037750302376E-003	2.000000000000000E+000	-8.0014770E-006	8.9880736E-008
2	0	0	1	1	4.203889893800806E+002	7.8047767E-002	7.7869967E-002	9.973822458353779E-004	2.000000000000000E+000	-7.9945903E-006	7.7666122E-008
2	0	0	0	1	4.203955893799139E+002	7.4749023E-002	7.4567668E-002	8.995096473427134E-004	2.000000000000000E+000	-7.9885740E-006	6.7074339E-008
2	0	0	1	1	4.204021893797471E+002	7.1450278E-002	7.1250796E-002	8.157205026388219E-004	2.000000000000000E+000	-7.9831652E-006	5.8120737E-008
2	0	0	1	1	4.204089893795754E+002	6.8051577E-002	6.7874350E-002	7.278130570663689E-004	2.000000000000000E+000	-7.9781676E-006	4.9399837E-008
2	0	0	0	1	4.204155893794086E+002	6.4752840E-002	6.4588271E-002	6.566872906432781E-004	2.000000000000000E+000	-7.9738420E-006	4.2414296E-008
2	0	0	1	1	4.204221893792419E+002	6.1454091E-002	6.1299060E-002	5.759373253871073E-004	2.000000000000000E+000	-7.9700339E-006	3.5304417E-008
2	0	0	1	1	4.204289893790701E+002	5.8055393E-002	5.7899661E-002	5.045508746737462E-004	2.000000000000000E+000	-7.9666124E-006	2.9213325E-008
2	0	0	0	1	4.204355893789034E+002	5.4756649E-002	5.4593794E-002	4.324683519674492E-004	2.000000000000000E+000	-7.9637603E-006	2.3610088E-008
2	0	0	1	1	4.204421893787367E+002	5.1457912E-002	5.1291496E-002	3.678318797180214E-004	2.000000000000000E+000	-7.9613756E-006	1.8866647E-008
2	0	0	1	1	4.204489893785649E+002	4.8059214E-002	4.7881849E-002	3.030784507738341E-004	2.000000000000000E+000	-7.9593565E-006	1.4511957E-008
2	0	0	0	1	4.204555893783981E+002	4.4760469E-002	4.4587813E-002	2.386899337655760E-004	2.000000000000000E+000	-7.9578040E-006	1.0642662E-008
2	0	0	1	1	4.204621893782314E+002	4.1428406E-002	4.1233808E-002	1.696042531818876E-004	2.000000000000000E+000	-7.9567099E-006	6.9934294E-009
2	0	0	0	1	4.204687893780647E+002	3.8129665E-002	3.7936792E-002	1.207720084740534E-004	2.000000000000000E+000	-7.9559977E-006	4.5817026E-009
2	0	0	0	1	4.204755893778929E+002	3.4730963E-002	3.4541581E-002	5.888036467875224E-005	2.000000000000000E+000	-7.9556348E-006	2.0338209E-009
2	0	0	1	1	4.204821893777262E+002	3.1432223E-002	3.1220773E-002	6.903429345269337E-006	2.000000000000000E+000	-7.9556603E-006	2.1553040E-010
2	0	0	0	1	4.204887893775594E+002	2.8133482E-002	2.7919551E-002	-4.776778280775784E-005	2.000000000000000E+000	-7.9560432E-006	1.3336551E-009
2	0	0	0	1	4.204955893773877E+002	2.4734778E-002	2.4528351E-002	-1.031119304229830E-004	2.000000000000000E+000	-7.9568072E-006	2.5291655E-009
2	0	0	1	1	4.205021893772209E+002	2.1436036E-002	2.1234188E-002	-1.523879175958122E-004	2.000000000000000E+000	-7.9578940E-006	3.2358338E-009
2	0	0	0	1	4.205087893770542E+002	1.8137295E-002	1.7945493E-002	-2.048273730262424E-004	2.000000000000000E+000	-7.9593246E-006	3.6757282E-009
2	0	0	0	1	4.205155893768824E+002	1.4738593E-002	1.4566948E-002	-2.572769967400740E-004	2.000000000000000E+000	-7.9611436E-006	3.7477403E-009
2	0	0	1	1	4.205221893767157E+002	1.1439851E-002	1.1230370E-002	-3.110082676092436E-004	2.000000000000000E+000	-7.9632482E-006	3.4927379E-009
2	0	0	0	1	4.205287893765490E+002	8.1411107E-003	7.9325819E-003	-3.569431058243321E-004	2.000000000000000E+000	-7.9656984E-006	2.8314804E-009
2	0	0	0	1	4.205355893763772E+002	4.7424082E-003	4.5313961E-003	-4.054387280386131E-004	2.000000000000000E+000	-7.9685333E-006	1.8372035E-009
2	0	0	1	1	4.205421893762104E+002	1.4436670E-003	1.1984438E-003	-4.598664232541214E-004	2.000000000000000E+000	-7.9716274E-006	5.5112409E-010
2	0	0	0	1	4.205487893760437E+002	-1.8550744E-003	-2.1037958E-003	-4.984273783823776E-004	2.000000000000000E+000	-7.9750453E-006	1.0485894E-009
2	0	0	0	1	4.205555893758719E+002	-5.2537788E-003	-5.5065723E-003	-5.441696237388281E-004	2.000000000000000E+000	-7.9788460E-006	2.9965095E-009
2	0	0	1	1	4.205621893757052E+002	-8.5525215E-003	-8.8063320E-003	-5.945397002506056E-004	2.000000000000000E+000	-7.9828342E-006	5.2357141E-009
2	0	0	0	1	4.205687893755385E+002	-1.1851264E-002	-1.2097381E-002	-6.350888801307511E-004	2.000000000000000E+000	-7.9871406E-006	7.6829121E-009
2	0	0	0	1	4.205755893753667E+002	-1.5249968E-002	-1.5498185E-002	-6.788294355753012E-004	2.000000000000000E+000	-7.9918682E-006	1.0520623E-008
2	0	0	1	1	4.205821893752000E+002	-1.8548710E-002	-1.8787518E-002	-7.236788174319973E-004	2.000000000000000E+000	-7.9967340E-006	1.3596129E-008
2	0	0	0	1	4.205887893750332E+002	-2.1847455E-002	-2.2077929E-002	-7.657473757338561E-004	2.000000000000000E+000	-8.0018954E-006	1.6906116E-008
2	0	0	0	1	4.205955893748614E+002	-2.5246158E-002	-2.5469450E-002	-8.084599782099168E-004	2.000000000000000E+000	-8.0074988E-006	2.0591031E-008
2	0	0	1	1	4.206021893746947E+002	-2.8544901E-002	-2.8770862E-002	-8.507478754230160E-004	2.000000000000000E+000	-8.0132158E-006	2.4476750E-008
2	0	0	0	1	4.206087893745280E+002	-3.1843644E-002	-3.2083221E-002	-8.950354948259100E-004	2.000000000000000E+000	-8.0192340E-006	2.8715622E-008
2	0	0	0	1	4.206155893743562E+002	-3.5242349E-002	-3.5480779E-002	-9.404176143410353E-004	2.000000000000000E+000	-8.0257196E-006	3.3366749E-008
2	0	0	1	1	4.206221893741895E+002	-3.8541086E-002	-3.8756184E-002	-9.791171044374368E-004	2.000000000000000E+000	-8.0322807E-006	3.7946844E-008
2	0	0	0	1	4.206287893740227E+002	-4.1839831E-002	-4.2082205E-002	-1.027078717470425E-003	2.000000000000000E+000	-8.0391465E-006	4.3221739E-008
2	0	0	0	1	4.206354893738535E+002	-4.5216698E-002	-4.5476656E-002	-1.071693468976920E-003	2.000000000000000E+000	-8.0464179E-006	4.8737036E-008
2	0	0	1	1	4.206421893736842E+002	-4.8570599E-002	-4.8808839E-002	-1.103195095917421E-003	2.000000000000000E+000	-8.0539439E-006	5.3845671E-008
2	0	0	0	1	4.206487893735175E+002	-5.1869344E-002	-5.2133210E-002	-1.147469754990499E-003	2.000000000000000E+000	-8.0616010E-006	5.9821282E-008
2	0	0	1	1	4.206553893733508E+002	-5.5168085E-002	-5.5428904E-002	-1.182817601693384E-003	2.000000000000000E+000	-8.0695409E-006	6.5562283E-008
2	0	0	1	1	4.206621893731790E+002	-5.8566786E-002	-5.8819529E-002	-1.223728756531266E-003	2.000000000000000E+000	-8.0779782E-006	7.1979152E-008
2	0	0	0	1	4.206687893730123E+002	-6.1865531E-002	-6.2118404E-002	-1.260554448784507E-003	2.000000000000000E+000	-8.0864083E-006	7.8303628E-008
2	0	0	1	1	4.206753893728455E+002	-6.5164275E-002	-6.5403223E-002	-1.301795301333175E-003	2.000000000000000E+000	-8.0951122E-006	8.5141608E-008
2	0	0	1	1	4.206821893726737E+002	-6.8562977E-002	-6.8811208E-002	-1.340080914193700E-003	2.000000000000000E+000	-8.1043472E-006	9.2212588E-008
2	0	0	0	1	4.206887893725070E+002	-7.1861722E-002	-7.2097182E-002	-1.384185071962443E-003	2.000000000000000E+000	-8.1135677E-006	9.9795841E-008
2	0	0	1	1	4.206953893723403E+002	-7.5160466E-002	-7.5402915E-002	-1.419211334814457E-003	2.000000000000000E+000	-8.1230646E-006	1.0701267E-007
2	0	0	1	1	4.207021893721685E+002	-7.8559160E-002	-7.8807019E-002	-1.457130091148430E-003	2.000000000000000E+000	-8.1330954E-006	1.1483208E-007
2	0	0	0	1	4.207087893720018E+002	-8.1857905E-002	-8.2110412E-002	-1.500432978855314E-003	2.000000000000000E+000	-8.1430835E-006	1.2320118E-007
2	0	0	1	1	4.207153893718350E+002	-8.5156649E-002	-8.5400626E-002	-1.530331859369960E-003	2.000000000000000E+000	-8.1533326E-006	1.3069130E-007
2	0	0	1	1	4.207221893716633E+002	-8.8555343E-002	-8.8789478E-002	-1.572356856771269E-003	2.000000000000000E+000	-8.1641329E-006	1.3960874E-007
2	0	0	0	1	4.207287893714965E+002	-9.1854103E-002	-9.2064112E-002	-1.607040804356075E-003	2.000000000000000E+000	-8.1748613E-006	1.4795079E-007
2	0	0	1	1	4.207353893713298E+002	-9.5152840E-002	-9.5373414E-002	-1.649722566495860E-003	2.000000000000000E+000	-8.1858670E-006	1.5733967E-007
2	0	0	1	1	4.207421893711580E+002	-9.8551542E-002	-9.8783247E-002	-1.685795736072275E-003	2.000000000000000E+000	-8.1974649E-006	1.6652838E-007
2	0	0	0	1	4.207487893709913E+002	-1.0185029E-001	-1.0206127E-001	-1.721135608901626E-003	2.000000000000000E+000	-8.2089446E-006	1.7566128E-007
2	0	0	1	1	4.207553893708246E+002	-1.0514903E-001	-1.0537585E-001	-1.758981963181817E-003	2.000000000000000E+000	-8.2206770E-006	1.8535421E-007
2	0	0	1	1	4.207621893706528E+002	-1.0854773E-001	-1.0877168E-001	-1.797355655071442E-003	2.000000000000000E+000	-8.2330207E-006	1.9550140E-007
2	0	0	0	1	4.207687893704860E+002	-1.1184648E-001	-1.1206751E-001	-1.833438400778199E-003	2.000000000000000E+000	-8.2452416E-006	2.0546887E-007
2	0	0	1	1	4.207753893703193E+002	-1.1514522E-001	-1.1537497E-001	-1.876216712025777E-003	2.000000000000000E+000	-8.2577244E-006	2.1646844E-007
2	0	0	1	1	4.207821893701475E+002	-1.1854392E-001	-1.1876579E-001	-1.906478333724711E-003	2.000000000000000E+000	-8.2708339E-006	2.2642440E-007
2	0	0	0	1	4.207887893699808E+002	-1.2184266E-001	-1.2205122E-001	-1.945560642767907E-003	2.000000000000000E+000	-8.2837842E-006	2.3745805E-007
2	0	0	1	1	4.207953893698141E+002	-1.2514141E-001	-1.2535508E-001	-1.981977609557358E-003	2.000000000000000E+000	-8.2969937E-006	2.4845096E-007
2	0	0	1	1	4.208021893696423E+002	-1.2854011E-001	-1.2877616E-001	-2.025091962301911E-003	2.000000000000000E+000	-8.3108753E-006	2.6078357E-007
2	0	0	0	1	4.208087893694756E+002	-1.3186109E-001	-1.3208921E-001	-2.062761277193202E-003	2.000000000000000E+000	-8.3245914E-006	2.7246853E-007
2	0	0	1	1	4.208153893693088E+002	-1.3517094E-001	-1.3539356E-001	-2.094348897814287E-003	2.000000000000000E+000	-8.3385394E-006	2.8356135E-007
2	0	0	0	1	4.208219893691421E+002	-1.3846967E-001	-1.3872179E-001	-2.132536397615088E-003	2.000000000000000E+000	-8.3527348E-006	2.9582927E-007
2	0	0	0	1	4.208287893689703E+002	-1.4186837E-001	-1.4212139E-001	-2.169498903034153E-003	2.000000000000000E+000	-8.3676005E-006	3.0833220E-007
2	0	0	1	1	4.208353893688036E+002	-1.4516711E-001	-1.4540207E-001	-2.201673788628492E-003	2.000000000000000E+000	-8.3822524E-006	3.2012792E-007
2	0	0	0	1	4.208419893686369E+002	-1.4846586E-001	-1.4871690E-001	-2.238586129775892E-003	2.000000000000000E+000	-8.3971518E-006	3.3291559E-007
2	0	0	0	1	4.208487893684651E+002	-1.5186456E-001	-1.5209259E-001	-2.277507048953943E-003	2.000000000000000E+000	-8.4127541E-006	3.4639194E-007
2	0	0	1	1	4.208553893682983E+002	-1.5516330E-001	-1.5537678E-001	-2.312694021899615E-003	2.000000000000000E+000	-8.4281264E-006	3.5933894E-007
2	0	0	0	1	4.208619893681316E+002	-1.5846203E-001	-1.5869363E-001	-2.357351097301334E-003	2.000000000000000E+000	-8.4437852E-006	3.7409660E-007
2	0	0	0	1	4.208687893679598E+002	-1.6186075E-001	-1.6210409E-001	-2.395717966070750E-003	2.000000000000000E+000	-8.4602016E-006	3.8835566E-007
2	0	0	1	1	4.208753893677931E+002	-1.6515949E-001	-1.6542032E-001	-2.431076046711186E-003	2.000000000000000E+000	-8.4763669E-006	4.0214940E-007
2	0	0	0	1	4.208819893676264E+002	-1.6845824E-001	-1.6872659E-001	-2.472515610679689E-003	2.000000000000000E+000	-8.4928060E-006	4.1717914E-007
2	0	0	0	1	4.208887893674546E+002	-1.7185692E-001	-1.7213032E-001	-2.513354641663069E-003	2.000000000000000E+000	-8.5100064E-006	4.3262452E-007
2	0	0	1	1	4.208953893672879E+002	-1.7515567E-001	-1.7539954E-001	-2.550458866638405E-003	2.000000000000000E+000	-8.5269439E-006	4.4734932E-007
2	0	0	0	1	4.209019893671211E+002	-1.7845444E-001	-1.7871068E-001	-2.595091805748483E-003	2.000000000000000E+000	-8.5441707E-006	4.6377062E-007
2	0	0	0	1	4.209087893669494E+002	-1.8185313E-001	-1.8212001E-001	-2.637380222192100E-003	2.000000000000000E+000	-8.5622150E-006	4.8031973E-007
2	0	0	1	1	4.209153893667826E+002	-1.8515188E-001	-1.8542162E-001	-2.678099665202653E-003	2.000000000000000E+000	-8.5799884E-006	4.9657757E-007
2	0	0	0	1	4.209219893666159E+002	-1.8845062E-001	-1.8871140E-001	-2.721376849816194E-003	2.000000000000000E+000	-8.5980546E-006	5.1355482E-007
2	0	0	0	1	4.209287893664441E+002	-1.9184931E-001	-1.9209924E-001	-2.763404833118939E-003	2.000000000000000E+000	-8.6169575E-006	5.3084796E-007
2	0	0	1	1	4.209353893662774E+002	-1.9514805E-001	-1.9537011E-001	-2.803516701108795E-003	2.000000000000000E+000	-8.6355558E-006	5.4772335E-007
2	0	0	0	1	4.209419893661106E+002	-1.9844680E-001	-1.9868419E-001	-2.848007376451273E-003	2.000000000000000E+000	-8.6544524E-006	5.6585401E-007
2	0	0	0	1	4.209487893659389E+002	-2.0184550E-001	-2.0209205E-001	-2.893375926396396E-003	2.000000000000000E+000	-8.6742402E-006	5.8472830E-007
2	0	0	1	1	4.209553893657721E+002	-2.0514424E-001	-2.0539246E-001	-2.941919611657781E-003	2.000000000000000E+000	-8.6937325E-006	6.0424810E-007
2	0	0	0	1	4.209619893656054E+002	-2.0844299E-001	-2.0867728E-001	-2.980915061531648E-003	2.000000000000000E+000	-8.7135149E-006	6.2204924E-007
2	0	0	0	1	4.209687893654336E+002	-2.1184167E-001	-2.1209289E-001	-3.034720961325857E-003	2.000000000000000E+000	-8.7342187E-006	6.4364275E-007
2	0	0	1	1	4.209753893652669E+002	-2.1514043E-001	-2.1541543E-001	-3.070712020022855E-003	2.000000000000000E+000	-8.7545914E-006	6.6147874E-007
2	0	0	0	1	4.209819893651002E+002	-2.1845028E-001	-2.1871181E-001	-3.112959091231465E-003	2.000000000000000E+000	-8.7752460E-006	6.8084091E-007
2	0	0	1	1	4.209885893649334E+002	-2.2177126E-001	-2.2203591E-001	-3.162413463572496E-003	2.000000000000000E+000	-8.7962053E-006	7.0216936E-007
2	0	0	1	1	4.209953893647617E+002	-2.2516994E-001	-2.2544898E-001	-3.201533368034384E-003	2.000000000000000E+000	-8.8180814E-006	7.2178244E-007
2	0	0	0	1	4.210019893645949E+002	-2.2846867E-001	-2.2873361E-001	-3.237444202083378E-003	2.000000000000000E+000	-8.8395636E-006	7.4051229E-007
2	0	0	1	1	4.210085893644282E+002	-2.3176742E-001	-2.3202607E-001	-3.279952528221962E-003	2.000000000000000E+000	-8.8613278E-006	7.6103447E-007
2	0	0	1	1	4.210153893642564E+002	-2.3516612E-001	-2.3543870E-001	-3.321367262409069E-003	2.000000000000000E+000	-8.8840197E-006	7.8197843E-007
2	0	0	0	1	4.210219893640897E+002	-2.3846489E-001	-2.3872484E-001	-3.363695755312313E-003	2.000000000000000E+000	-8.9063014E-006	8.0299776E-007
2	0	0	1	1	4.210285893639229E+002	-2.4176361E-001	-2.4201614E-001	-3.403920075046085E-003	2.000000000000000E+000	-8.9288742E-006	8.2380359E-007
2	0	0	1	1	4.210353893637512E+002	-2.4516232E-001	-2.4541086E-001	-3.449055165341015E-003	2.000000000000000E+000	-8.9524219E-006	8.4643557E-007
2	0	0	0	1	4.210419893635844E+002	-2.4846107E-001	-2.4873964E-001	-3.488411749579722E-003	2.000000000000000E+000	-8.9755440E-006	8.6770632E-007
2	0	0	1	1	4.210485893634177E+002	-2.5175983E-001	-2.5201419E-001	-3.527459091916776E-003	2.000000000000000E+000	-8.9989371E-006	8.8896974E-007
2	0	0	1	1	4.210553893632459E+002	-2.5515851E-001	-2.5540584E-001	-3.567300147187778E-003	2.000000000000000E+000	-9.0233088E-006	9.1110928E-007
2	0	0	0	1	4.210619893630792E+002	-2.5845724E-001	-2.5871271E-001	-3.604614308945500E-003	2.000000000000000E+000	-9.0472040E-006	9.3255954E-007
2	0	0	1	1	4.210685893629125E+002	-2.6175600E-001	-2.6201990E-001	-3.643774544677097E-003	2.000000000000000E+000	-9.0713656E-006	9.5474149E-007
2	0	0	1	1	4.210753893627407E+002	-2.6515469E-001	-2.6540330E-001	-3.688582486029192E-003	2.000000000000000E+000	-9.0965441E-006	9.7896202E-007
2	0	0	0	1	4.210819893625740E+002	-2.6845342E-001	-2.6871198E-001	-3.724031252932039E-003	2.000000000000000E+000	-9.1212332E-006	1.0006918E-006
2	0	0	1	1	4.210885893624072E+002	-2.7175218E-001	-2.7199259E-001	-3.758805360545608E-003	2.000000000000000E+000	-9.1461789E-006	1.0223672E-006
2	0	0	1	1	4.210953893622354E+002	-2.7515090E-001	-2.7539024E-001	-3.797515850116423E-003	2.000000000000000E+000	-9.1721249E-006	1.0457987E-006
2	0	0	0	1	4.211019893620687E+002	-2.7844965E-001	-2.7868336E-001	-3.840283905689520E-003	2.000000000000000E+000	-9.1975598E-006	1.0702232E-006
2	0	0	1	1	4.211085893619020E+002	-2.8174835E-001	-2.8198177E-001	-3.881296996526833E-003	2.000000000000000E+000	-9.2232895E-006	1.0944550E-006
2	0	0	1	1	4.211153893617302E+002	-2.8514707E-001	-2.8536922E-001	-3.921388611342981E-003	2.000000000000000E+000	-9.2500723E-006	1.1190436E-006
2	0	0	0	1	4.211219893615635E+002	-2.8844583E-001	-2.8868297E-001	-3.964265737461871E-003	2.000000000000000E+000	-9.2763294E-006	1.1444160E-006
2	0	0	1	1	4.211285893613967E+002	-2.9174456E-001	-2.9198912E-001	-4.002246980356465E-003	2.000000000000000E+000	-9.3028593E-006	1.1686126E-006
2	0	0	1	1	4.211353893612250E+002	-2.9514328E-001	-2.9537618E-001	-4.040548629260822E-003	2.000000000000000E+000	-9.3304534E-006	1.1934818E-006
2	0	0	0	1	4.211419893610582E+002	-2.9844201E-001	-2.9871106E-001	-4.091854064305761E-003	2.000000000000000E+000	-9.3575209E-006	1.2222821E-006
2	0	0	1	1	4.211485893608915E+002	-3.0174074E-001	-3.0201462E-001	-4.122863126940511E-003	2.000000000000000E+000	-9.3848748E-006	1.2451650E-006
2	0	0	1	1	4.211552893607222E+002	-3.0509463E-001	-3.0535412E-001	-4.162515384889737E-003	2.000000000000000E+000	-9.4128745E-006	1.2710412E-006
2	0	0	0	1	4.211619893605530E+002	-3.0847150E-001	-3.0873019E-001	-4.215550508706652E-003	2.000000000000000E+000	-9.4412126E-006	1.3014677E-006
2	0	0	1	1	4.211685893603863E+002	-3.1177023E-001	-3.1205449E-001	-4.254959106401647E-003	2.000000000000000E+000	-9.4693951E-006	1.3277790E-006
2	0	0	0	1	4.211751893602195E+002	-3.1506899E-001	-3.1534714E-001	-4.294374996485800E-003	2.000000000000000E+000	-9.4978514E-006	1.3542189E-006
2	0	0	0	1	4.211819893600477E+002	-3.1846771E-001	-3.1872839E-001	-4.334105682270700E-003	2.000000000000000E+000	-9.5274345E-006	1.3814025E-006
2	0	0	1	1	4.211885893598810E+002	-3.2176644E-001	-3.2202408E-001	-4.383979348555519E-003	2.000000000000000E+000	-9.5564310E-006	1.4117469E-006
2	0	0	0	1	4.211951893597143E+002	-3.2506517E-001	-3.2531774E-001	-4.421715013086205E-003	2.000000000000000E+000	-9.5857395E-006	1.4384624E-006
2	0	0	0	1	4.212019893595425E+002	-3.2846388E-001	-3.2870799E-001	-4.476838606145353E-003	2.000000000000000E+000	-9.6162466E-006	1.4715727E-006
2	0	0	1	1	4.212085893593758E+002	-3.3176267E-001	-3.3203804E-001	-4.518686871354767E-003	2.000000000000000E+000	-9.6461763E-006	1.5003759E-006
2	0	0	0	1	4.212151893592090E+002	-3.3506137E-001	-3.3532110E-001	-4.562868610203913E-003	2.000000000000000E+000	-9.6764015E-006	1.5300261E-006
2	0	0	0	1	4.212219893590373E+002	-3.3846006E-001	-3.3873898E-001	-4.618368502330363E-003	2.000000000000000E+000	-9.7078764E-006	1.5644214E-006
2	0	0	1	1	4.212285893588705E+002	-3.4175882E-001	-3.4206840E-001	-4.664379296203447E-003	2.000000000000000E+000	-9.7387447E-006	1.5955368E-006
2	0	0	0	1	4.212351893587038E+002	-3.4505755E-001	-3.4536281E-001	-4.711917478925881E-003	2.000000000000000E+000	-9.7699303E-006	1.6273211E-006
2	0	0	0	1	4.212419893585320E+002	-3.4845626E-001	-3.4873059E-001	-4.762769626055759E-003	2.000000000000000E+000	-9.8023802E-006	1.6609234E-006
2	0	0	1	1	4.212485893583653E+002	-3.5175502E-001	-3.5206386E-001	-4.815489942120599E-003	2.000000000000000E+000	-9.8342134E-006	1.6953600E-006
2	0	0	0	1	4.212551893581986E+002	-3.5505375E-001	-3.5534754E-001	-4.865536430164238E-003	2.000000000000000E+000	-9.8664068E-006	1.7289565E-006
2	0	0	0	1	4.212619893580268E+002	-3.5845247E-001	-3.5875329E-001	-4.915498751082228E-003	2.000000000000000E+000	-9.8999099E-006	1.7634513E-006
2	0	0	1	1	4.212685893578600E+002	-3.6175120E-001	-3.6203545E-001	-4.965012533345241E-003	2.000000000000000E+000	-9.9327499E-006	1.7975105E-006
2	0	0	0	1	4.212751893576933E+002	-3.6504996E-001	-3.6532843E-001	-5.024134309496719E-003	2.000000000000000E+000	-9.9659565E-006	1.8354591E-006
2	0	0	0	1	4.212819893575215E+002	-3.6844867E-001	-3.6873239E-001	-5.073896713111009E-003	2.000000000000000E+000	-1.0000523E-005	1.8709101E-006
2	0	0	1	1	4.212885893573548E+002	-3.7174743E-001	-3.7203652E-001	-5.138817420144437E-003	2.000000000000000E+000	-1.0034457E-005	1.9118277E-006
2	0	0	0	1	4.212951893571881E+002	-3.7504616E-001	-3.7531298E-001	-5.190657253175857E-003	2.000000000000000E+000	-1.0068788E-005	1.9481211E-006
2	0	0	0	1	4.213019893570163E+002	-3.7844485E-001	-3.7872925E-001	-5.245285795050819E-003	2.000000000000000E+000	-1.0104530E-005	1.9865431E-006
2	0	0	1	1	4.213085893568496E+002	-3.8174361E-001	-3.8203064E-001	-5.312507799074717E-003	2.000000000000000E+000	-1.0139596E-005	2.0295408E-006
2	0	0	0	1	4.213151893566828E+002	-3.8504234E-001	-3.8536048E-001	-5.362292721292763E-003	2.000000000000000E+000	-1.0175073E-005	2.0664156E-006
2	0	0	0	1	4.213219893565110E+002	-3.8844103E-001	-3.8874847E-001	-5.427979311995540E-003	2.000000000000000E+000	-1.0212011E-005	2.1101187E-006
2	0	0	1	1	4.213285893563443E+002	-3.9173979E-001	-3.9203545E-001	-5.489051838715855E-003	2.000000000000000E+000	-1.0248263E-005	2.1519029E-006
2	0	0	0	1	4.213351893561776E+002	-3.9506075E-001	-3.9537627E-001	-5.555518541950723E-003	2.000000000000000E+000	-1.0284947E-005	2.1965202E-006
2	0	0	1	1	4.213417893560109E+002	-3.9837059E-001	-3.9868489E-001	-5.613797557210365E-003	2.000000000000000E+000	-1.0322041E-005	2.2381362E-006
2	0	0	1	1	4.213485893558391E+002	-4.0176928E-001	-4.0206906E-001	-5.675333534478929E-003	2.000000000000000E+000	-1.0360677E-005	2.2818760E-006
2	0	0	0	1	4.213551893556723E+002	-4.0506798E-001	-4.0535817E-001	-5.742322496007535E-003	2.000000000000000E+000	-1.0398594E-005	2.3276973E-006
2	0	0	1	1	4.213617893555056E+002	-4.0836677E-001	-4.0865207E-001	-5.802368894728710E-003	2.000000000000000E+000	-1.0436932E-005	2.3711500E-006
2	0	0	1	1	4.213685893553338E+002	-4.1176549E-001	-4.1205117E-001	-5.865538264091225E-003	2.000000000000000E+000	-1.0476853E-005	2.4169019E-006
2	0	0	0	1	4.213751893551671E+002	-4.1506419E-001	-4.1536292E-001	-5.937096015198484E-003	2.000000000000000E+000	-1.0516037E-005	2.4660496E-006
2	0	0	1	1	4.213817893550004E+002	-4.1836298E-001	-4.1866755E-001	-6.006851131072244E-003	2.000000000000000E+000	-1.0555699E-005	2.5148736E-006
2	0	0	1	1	4.213885893548286E+002	-4.2176163E-001	-4.2206505E-001	-6.074166131475045E-003	2.000000000000000E+000	-1.0597029E-005	2.5636932E-006
2	0	0	0	1	4.213951893546619E+002	-4.2506039E-001	-4.2538121E-001	-6.139909774598579E-003	2.000000000000000E+000	-1.0637571E-005	2.6118023E-006
2	0	0	1	1	4.214017893544951E+002	-4.2835918E-001	-4.2864066E-001	-6.206502177398453E-003	2.000000000000000E+000	-1.0678561E-005	2.6603593E-006
2	0	0	1	1	4.214085893543233E+002	-4.3175787E-001	-4.3204203E-001	-6.273049592952384E-003	2.000000000000000E+000	-1.0721261E-005	2.7102210E-006
2	0	0	0	1	4.214151893541566E+002	-4.3505663E-001	-4.3535662E-001	-6.355235965323405E-003	2.000000000000000E+000	-1.0763167E-005	2.7667941E-006
2	0	0	1	1	4.214217893539899E+002	-4.3835536E-001	-4.3864524E-001	-6.422318851643169E-003	2.000000000000000E+000	-1.0805566E-005	2.8171196E-006
2	0	0	1	1	4.214285893538181E+002	-4.4175407E-001	-4.4204503E-001	-6.496015384861178E-003	2.000000000000000E+000	-1.0849750E-005	2.8715313E-006
2	0	0	0	1	4.214351893536514E+002	-4.4505277E-001	-4.4534051E-001	-6.571441426785885E-003	2.000000000000000E+000	-1.0893110E-005	2.9265291E-006
2	0	0	1	1	4.214417893534846E+002	-4.4835153E-001	-4.4862387E-001	-6.642412180372023E-003	2.000000000000000E+000	-1.0936961E-005	2.9799446E-006
2	0	0	1	1	4.214485893533129E+002	-4.5175022E-001	-4.5203161E-001	-6.722357057878943E-003	2.000000000000000E+000	-1.0982661E-005	3.0387180E-006
2	0	0	0	1	4.214551893531461E+002	-4.5504898E-001	-4.5530760E-001	-6.801206403542870E-003	2.000000000000000E+000	-1.1027511E-005	3.0966410E-006
2	0	0	1	1	4.214617893529794E+002	-4.5834771E-001	-4.5862767E-001	-6.875158003822407E-003	2.000000000000000E+000	-1.1072884E-005	3.1531376E-006
2	0	0	1	1	4.214685893528076E+002	-4.6174645E-001	-4.6203884E-001	-6.952818804954103E-003	2.000000000000000E+000	-1.1120137E-005	3.2124724E-006
2	0	0	0	1	4.214751893526409E+002	-4.6504515E-001	-4.6532756E-001	-7.030193007328017E-003	2.000000000000000E+000	-1.1166503E-005	3.2713426E-006
2	0	0	1	1	4.214817893524742E+002	-4.6834391E-001	-4.6864587E-001	-7.117942228069302E-003	2.000000000000000E+000	-1.1213446E-005	3.3357942E-006
2	0	0	1	1	4.214885893523024E+002	-4.7174263E-001	-4.7203609E-001	-7.181348488181055E-003	2.000000000000000E+000	-1.1262324E-005	3.3898557E-006
2	0	0	0	1	4.214951893521356E+002	-4.7504133E-001	-4.7534359E-001	-7.266683115934348E-003	2.000000000000000E+000	-1.1310239E-005	3.4541713E-006
2	0	0	1	1	4.215017893519689E+002	-4.7834012E-001	-4.7864756E-001	-7.356123610710107E-003	2.000000000000000E+000	-1.1358745E-005	3.5209905E-006
2	0	0	1	1	4.215084893517997E+002	-4.8170546E-001	-4.8201576E-001	-7.434113067574785E-003	2.000000000000000E+000	-1.1408542E-005	3.5833596E-006
2	0	0	0	1	4.215151893516304E+002	-4.8507085E-001	-4.8537096E-001	-7.516294191858230E-003	2.000000000000000E+000	-1.1458889E-005	3.6481911E-006
2	0	0	1	1	4.215217893514637E+002	-4.8836961E-001	-4.8866037E-001	-7.597714494113450E-003	2.000000000000000E+000	-1.1509004E-005	3.7127020E-006
2	0	0	0	1	4.215283893512969E+002	-4.9166834E-001	-4.9195257E-001	-7.673887366763638E-003	2.000000000000000E+000	-1.1559638E-005	3.7751886E-006
2	0	0	0	1	4.215351893511252E+002	-4.9506709E-001	-4.9534857E-001	-7.759637773657804E-003	2.000000000000000E+000	-1.1612371E-005	3.8437256E-006
2	0	0	1	1	4.215417893509584E+002	-4.9836579E-001	-4.9866685E-001	-7.850299608495905E-003	2.000000000000000E+000	-1.1664119E-005	3.9146844E-006
2	0	0	0	1	4.215483893507917E+002	-5.0166458E-001	-5.0196689E-001	-7.933363059540455E-003	2.000000000000000E+000	-1.1716451E-005	3.9822858E-006
2	0	0	0	1	4.215551893506199E+002	-5.0506324E-001	-5.0536805E-001	-8.021359304499705E-003	2.000000000000000E+000	-1.1770952E-005	4.0537388E-006
2	0	0	1	1	4.215617893504532E+002	-5.0836200E-001	-5.0864863E-001	-8.109169146579609E-003	2.000000000000000E+000	-1.1824416E-005	4.1247176E-006
2	0	0	0	1	4.215683893502865E+002	-5.1166070E-001	-5.1195914E-001	-8.188322843367707E-003	2.000000000000000E+000	-1.1878458E-005	4.1920866E-006
2	0	0	0	1	4.215751893501147E+002	-5.1505947E-001	-5.1535565E-001	-8.279095306594778E-003	2.000000000000000E+000	-1.1934721E-005	4.2666784E-006
2	0	0	1	1	4.215817893499479E+002	-5.1835823E-001	-5.1864403E-001	-8.372389833796970E-003	2.000000000000000E+000	-1.1989909E-005	4.3422901E-006
2	0	0	0	1	4.215883893497812E+002	-5.2165693E-001	-5.2196360E-001	-8.462306343062664E-003	2.000000000000000E+000	-1.2045719E-005	4.4170160E-006
2	0	0	0	1	4.215951893496094E+002	-5.2505559E-001	-5.2535123E-001	-8.559228811282054E-003	2.000000000000000E+000	-1.2103851E-005	4.4966014E-006
2	0	0	1	1	4.216017893494427E+002	-5.2835435E-001	-5.2866173E-001	-8.641100463015980E-003	2.000000000000000E+000	-1.2160852E-005	4.5682191E-006
2	0	0	0	1	4.216083893492760E+002	-5.3165305E-001	-5.3194636E-001	-8.737422663277025E-003	2.000000000000000E+000	-1.2218454E-005	4.6478403E-006
2	0	0	0	1	4.216151893491042E+002	-5.3505182E-001	-5.3534776E-001	-8.826169220022426E-003	2.000000000000000E+000	-1.2278428E-005	4.7250701E-006
2	0	0	1	1	4.216217893489375E+002	-5.3835058E-001	-5.3863037E-001	-8.925228453153980E-003	2.000000000000000E+000	-1.2337248E-005	4.8073989E-006
2	0	0	0	1	4.216283893487707E+002	-5.4164928E-001	-5.4193926E-001	-9.023981944483228E-003	2.000000000000000E+000	-1.2396729E-005	4.8904499E-006
2	0	0	0	1	4.216351893485989E+002	-5.4504800E-001	-5.4533863E-001	-9.125522407703077E-003	2.000000000000000E+000	-1.2458693E-005	4.9764999E-006
2	0	0	1	1	4.216417893484322E+002	-5.4834670E-001	-5.4865116E-001	-9.220987789376509E-003	2.000000000000000E+000	-1.2519483E-005	5.0591057E-006
2	0	0	0	1	4.216483893482655E+002	-5.5164552E-001	-5.5193466E-001	-9.329970221612374E-003	2.000000000000000E+000	-1.2580967E-005	5.1495340E-006
2	0	0	0	1	4.216551893480937E+002	-5.5504411E-001	-5.5535847E-001	-9.430264035108826E-003	2.000000000000000E+000	-1.2645034E-005	5.2371770E-006
2	0	0	1	1	4.216617893479270E+002	-5.5834293E-001	-5.5865496E-001	-9.533394116200099E-003	2.000000000000000E+000	-1.2707861E-005	5.3258777E-006
2	0	0	0	1	4.216683893477602E+002	-5.6164163E-001	-5.6193590E-001	-9.649055898989900E-003	2.000000000000000E+000	-1.2771404E-005	5.4221509E-006
2	0	0	0	1	4.216751893475885E+002	-5.6504035E-001	-5.6535667E-001	-9.749775855137456E-003	2.000000000000000E+000	-1.2837624E-005	5.5121009E-006
2	0	0	1	1	4.216817893474217E+002	-5.6835020E-001	-5.6867164E-001	-9.871066778941895E-003	2.000000000000000E+000	-1.2902615E-005	5.6133958E-006
2	0	0	0	1	4.216883893472550E+002	-5.7167119E-001	-5.7198977E-001	-9.976938197481397E-003	2.000000000000000E+000	-1.2968345E-005	5.7067068E-006
2	0	0	1	1	4.216949893470883E+002	-5.7496995E-001	-5.7526731E-001	-1.009695583209877E-002	2.000000000000000E+000	-1.3034840E-005	5.8084488E-006
2	0	0	1	1	4.217170893465300E+002	-5.8600086E-001	-5.8625871E-001	-1.046841948669193E-002	2.000000000000000E+000	-1.3262244E-005	6.1372020E-006
2	0	0	1	1	4.217389893459767E+002	-5.9696156E-001	-5.9719908E-001	-1.084552444153815E-002	2.000000000000000E+000	-1.3490384E-005	6.4769374E-006
2	0	0	1	1	4.217433893458656E+002	-5.9916061E-001	-5.9941512E-001	-1.092227772520954E-002	2.000000000000000E+000	-1.3538499E-005	6.5469785E-006
2	0	0	1	1	4.217447893458302E+002	-5.9982693E-001	-6.0003889E-001	-1.097233546897769E-002	2.000000000000000E+000	-1.3553918E-005	6.5838281E-006