EC-Lab ASCII FILE
Nb header lines : 53                          

Cyclic Voltammetry

Run on channel : 1 (SN 0696)
User : 
Electrode connection : standard
Ewe ctrl range : min = -10.00 V, max = 10.00 V
Ewe,I filtering : 50 kHz
Channel : Grounded
Acquisition started on : 05/17/2017 13:04:41
Saved on :
	File : 100 uM RS 10mM SHU_06_CV_C01.mpr
	Directory : \\userfs\st659\w2k\EC-Lab\Data\ITO Characterisation 17-5-17\
	Host : 144.32.136.43
Device : SP-300 (SN 0182)
Address : USB
EC-Lab for windows v10.44 (software)
Internet server v10.44 (firmware)
Command interpretor v10.44 (firmware)
Electrode material : 
Initial state : 
Electrolyte : 
Comments : 
Cable : standard
Electrode surface area : 0.001 cm²
Characteristic mass : 0.001 g
Equivalent Weight : 0.000 g/eq.
Density : 0.000 g/cm3
Ei (V)              0.000               
vs.                 Eoc                 
dE/dt               1000.000            
dE/dt unit          mV/s                
E1 (V)              0.100               
vs.                 Ref                 
Step percent        50                  
N                   10                  
E range min (V)     -10.000             
E range max (V)     10.000              
I Range             Auto                
I Range min         Unset               
I Range max         Unset               
I Range init        Unset               
Bandwidth           8                   
E2 (V)              -0.600              
vs.                 Ref                 
nc cycles           2                   
Reverse Scan        1                   
Ef (V)              0.000               
vs.                 Eoc                 

mode	ox/red	error	control changes	counter inc.	time/s	control/V	Ewe/V	<I>/mA	cycle number	(Q-Qo)/C	P/W
2	1	0	1	1	4.278591891913675E+002	-6.0016018E-001	-6.0037845E-001	-1.473903935402632E-002	2.000000000000000E+000	-4.9107548E-006	8.8490015E-006
2	1	0	1	1	4.278610891913195E+002	-5.9826100E-001	-5.9848076E-001	-1.291152502720555E-002	2.000000000000000E+000	-4.9356686E-006	7.7272989E-006
2	1	0	1	1	4.278642891912386E+002	-5.9506226E-001	-5.9530401E-001	-1.125749622054478E-002	2.000000000000000E+000	-4.9739824E-006	6.7016326E-006
2	1	0	0	1	4.278676891911527E+002	-5.9166354E-001	-5.9189719E-001	-1.029116896376459E-002	2.000000000000000E+000	-5.0103299E-006	6.0913139E-006
2	1	0	1	1	4.278710891910669E+002	-5.8826488E-001	-5.8850253E-001	-9.640641352477039E-003	2.000000000000000E+000	-5.0439912E-006	5.6735416E-006
2	1	0	1	1	4.278742891909860E+002	-5.8506608E-001	-5.8530378E-001	-9.153416132782394E-003	2.000000000000000E+000	-5.0738718E-006	5.3575291E-006
2	1	0	0	1	4.278776891909001E+002	-5.8166736E-001	-5.8187920E-001	-8.717806023681371E-003	2.000000000000000E+000	-5.1040488E-006	5.0727099E-006
2	1	0	1	1	4.278810891908142E+002	-5.7826865E-001	-5.7849848E-001	-8.343640608472903E-003	2.000000000000000E+000	-5.1328748E-006	4.8267834E-006
2	1	0	1	1	4.278842891907334E+002	-5.7506984E-001	-5.7530636E-001	-8.013844197375858E-003	2.000000000000000E+000	-5.1588750E-006	4.6104155E-006
2	1	0	0	1	4.278876891906475E+002	-5.7167119E-001	-5.7190990E-001	-7.684772588072486E-003	2.000000000000000E+000	-5.1853740E-006	4.3949976E-006
2	1	0	1	1	4.278909891905641E+002	-5.6831533E-001	-5.6854534E-001	-7.362415502419541E-003	2.000000000000000E+000	-5.2100545E-006	4.1858671E-006
2	1	0	1	1	4.278942891904808E+002	-5.6500709E-001	-5.6524986E-001	-7.112520498958469E-003	2.000000000000000E+000	-5.2337487E-006	4.0203513E-006
2	1	0	0	1	4.278976891903949E+002	-5.6160837E-001	-5.6184727E-001	-6.846672157250086E-003	2.000000000000000E+000	-5.2573077E-006	3.8467842E-006
2	1	0	0	1	4.279008891903140E+002	-5.5840963E-001	-5.5863726E-001	-6.623006594721398E-003	2.000000000000000E+000	-5.2786959E-006	3.6998583E-006
2	1	0	1	1	4.279042891902282E+002	-5.5501086E-001	-5.5524892E-001	-6.381809759841414E-003	2.000000000000000E+000	-5.3006243E-006	3.5434930E-006
2	1	0	0	1	4.279076891901423E+002	-5.5161214E-001	-5.5183047E-001	-6.152588492902095E-003	2.000000000000000E+000	-5.3217705E-006	3.3951858E-006
2	1	0	0	1	4.279108891900614E+002	-5.4841334E-001	-5.4862380E-001	-5.952124679242832E-003	2.000000000000000E+000	-5.3409744E-006	3.2654773E-006
2	1	0	1	1	4.279142891899755E+002	-5.4501462E-001	-5.4521221E-001	-5.752385373004182E-003	2.000000000000000E+000	-5.3606977E-006	3.1362708E-006
2	1	0	0	1	4.279176891898896E+002	-5.4161602E-001	-5.4182512E-001	-5.555074922206887E-003	2.000000000000000E+000	-5.3797608E-006	3.0098790E-006
2	1	0	0	1	4.279208891898088E+002	-5.3841728E-001	-5.3862518E-001	-5.380826364428978E-003	2.000000000000000E+000	-5.3971025E-006	2.8982486E-006
2	1	0	1	1	4.279242891897229E+002	-5.3501850E-001	-5.3523475E-001	-5.205204268895614E-003	2.000000000000000E+000	-5.4149200E-006	2.7860062E-006
2	1	0	0	1	4.279276891896370E+002	-5.3161979E-001	-5.3184122E-001	-5.039079163179847E-003	2.000000000000000E+000	-5.4321754E-006	2.6799901E-006
2	1	0	0	1	4.279308891895562E+002	-5.2842098E-001	-5.2864045E-001	-4.887447596108055E-003	2.000000000000000E+000	-5.4479019E-006	2.5837026E-006
2	1	0	1	1	4.279342891894703E+002	-5.2502227E-001	-5.2524555E-001	-4.718601741751614E-003	2.000000000000000E+000	-5.4640532E-006	2.4784244E-006
2	1	0	0	1	4.279376891893844E+002	-5.2162355E-001	-5.2185130E-001	-4.559418142010430E-003	2.000000000000000E+000	-5.4796724E-006	2.3793382E-006
2	1	0	0	1	4.279408891893036E+002	-5.1842481E-001	-5.1863760E-001	-4.419037608386137E-003	2.000000000000000E+000	-5.4938882E-006	2.2918791E-006
2	1	0	1	1	4.279442891892177E+002	-5.1502615E-001	-5.1526070E-001	-4.286374049903924E-003	2.000000000000000E+000	-5.5085111E-006	2.2086001E-006
2	1	0	0	1	4.279476891891318E+002	-5.1162744E-001	-5.1185286E-001	-4.140793699662020E-003	2.000000000000000E+000	-5.5226851E-006	2.1194771E-006
2	1	0	0	1	4.279508891890509E+002	-5.0842869E-001	-5.0865597E-001	-4.010698634313789E-003	2.000000000000000E+000	-5.5355777E-006	2.0400657E-006
2	1	0	1	1	4.279542891889650E+002	-5.0502998E-001	-5.0524116E-001	-3.874144595404999E-003	2.000000000000000E+000	-5.5488103E-006	1.9573772E-006
2	1	0	0	1	4.279576891888792E+002	-5.0163126E-001	-5.0185347E-001	-3.748587879363177E-003	2.000000000000000E+000	-5.5616169E-006	1.8812418E-006
2	1	0	0	1	4.279608891887983E+002	-4.9843243E-001	-4.9863580E-001	-3.629616368774194E-003	2.000000000000000E+000	-5.5732712E-006	1.8098567E-006
2	1	0	1	1	4.279642891887124E+002	-4.9503371E-001	-4.9522629E-001	-3.507339775175443E-003	2.000000000000000E+000	-5.5852311E-006	1.7369268E-006
2	1	0	0	1	4.279676891886265E+002	-4.9163502E-001	-4.9183479E-001	-3.387402252549975E-003	2.000000000000000E+000	-5.5968089E-006	1.6660423E-006
2	1	0	0	1	4.279708891885457E+002	-4.8843628E-001	-4.8865199E-001	-3.289878408092296E-003	2.000000000000000E+000	-5.6073445E-006	1.6076057E-006
2	1	0	1	1	4.279742891884598E+002	-4.8503757E-001	-4.8525840E-001	-3.170118965529878E-003	2.000000000000000E+000	-5.6181570E-006	1.5383268E-006
2	1	0	0	1	4.279776891883739E+002	-4.8163885E-001	-4.8187530E-001	-3.061839538228618E-003	2.000000000000000E+000	-5.6286044E-006	1.4754248E-006
2	1	0	0	1	4.279808891882931E+002	-4.7844008E-001	-4.7865695E-001	-2.956293420599346E-003	2.000000000000000E+000	-5.6380900E-006	1.4150504E-006
2	1	0	1	1	4.279842891882072E+002	-4.7504136E-001	-4.7525251E-001	-2.853252080149110E-003	2.000000000000000E+000	-5.6477961E-006	1.3560152E-006
2	1	0	0	1	4.279876891881213E+002	-4.7164261E-001	-4.7186416E-001	-2.752867551498638E-003	2.000000000000000E+000	-5.6571753E-006	1.2989796E-006
2	1	0	0	1	4.279908891880405E+002	-4.6844384E-001	-4.6866426E-001	-2.659310392724972E-003	2.000000000000000E+000	-5.6656845E-006	1.2463237E-006
2	1	0	1	1	4.279942891879546E+002	-4.6504512E-001	-4.6524745E-001	-2.552238691532691E-003	2.000000000000000E+000	-5.6743738E-006	1.1874225E-006
2	1	0	0	1	4.279976891878687E+002	-4.6164650E-001	-4.6186319E-001	-2.465546559809195E-003	2.000000000000000E+000	-5.6827557E-006	1.1387452E-006
2	1	0	0	1	4.280008891877878E+002	-4.5844766E-001	-4.5866239E-001	-2.373908825923844E-003	2.000000000000000E+000	-5.6903514E-006	1.0888227E-006
2	1	0	1	1	4.280042891877019E+002	-4.5504898E-001	-4.5523873E-001	-2.273143053525930E-003	2.000000000000000E+000	-5.6980834E-006	1.0348227E-006
2	1	0	0	1	4.280076891876161E+002	-4.5165029E-001	-4.5183301E-001	-2.193646778020288E-003	2.000000000000000E+000	-5.7055290E-006	9.9116198E-007
2	1	0	0	1	4.280108891875352E+002	-4.4845149E-001	-4.4864997E-001	-2.103687303739808E-003	2.000000000000000E+000	-5.7122575E-006	9.4381926E-007
2	1	0	1	1	4.280142891874493E+002	-4.4505277E-001	-4.4525903E-001	-2.026097914070601E-003	2.000000000000000E+000	-5.7191137E-006	9.0213842E-007
2	1	0	0	1	4.280176891873634E+002	-4.4165406E-001	-4.4186252E-001	-1.935642362256358E-003	2.000000000000000E+000	-5.7257048E-006	8.5528779E-007
2	1	0	0	1	4.280208891872826E+002	-4.3845531E-001	-4.3867868E-001	-1.859718476710744E-003	2.000000000000000E+000	-5.7316333E-006	8.1581885E-007
2	1	0	1	1	4.280242891871967E+002	-4.3505666E-001	-4.3526888E-001	-1.770331112523602E-003	2.000000000000000E+000	-5.7376351E-006	7.7057001E-007
2	1	0	0	1	4.280276891871108E+002	-4.3165791E-001	-4.3184862E-001	-1.689080224484007E-003	2.000000000000000E+000	-5.7433672E-006	7.2942697E-007
2	1	0	0	1	4.280308891870300E+002	-4.2845914E-001	-4.2866871E-001	-1.616690629134604E-003	2.000000000000000E+000	-5.7485136E-006	6.9302467E-007
2	1	0	1	1	4.280342891869441E+002	-4.2506042E-001	-4.2528751E-001	-1.543055066046388E-003	2.000000000000000E+000	-5.7537213E-006	6.5624204E-007
2	1	0	0	1	4.280376891868582E+002	-4.2166170E-001	-4.2188638E-001	-1.463558630530314E-003	2.000000000000000E+000	-5.7586935E-006	6.1745544E-007
2	1	0	0	1	4.280408891867773E+002	-4.1846293E-001	-4.1869068E-001	-1.393635461893909E-003	2.000000000000000E+000	-5.7631219E-006	5.8350219E-007
2	1	0	1	1	4.280442891866915E+002	-4.1506422E-001	-4.1528180E-001	-1.316821497205939E-003	2.000000000000000E+000	-5.7675616E-006	5.4685199E-007
2	1	0	0	1	4.280476891866056E+002	-4.1166553E-001	-4.1187567E-001	-1.234871341375764E-003	2.000000000000000E+000	-5.7717539E-006	5.0861348E-007
2	1	0	0	1	4.280508891865247E+002	-4.0846673E-001	-4.0869173E-001	-1.174216151381795E-003	2.000000000000000E+000	-5.7754664E-006	4.7989244E-007
2	1	0	1	1	4.280542891864388E+002	-4.0506804E-001	-4.0528026E-001	-1.105869342814002E-003	2.000000000000000E+000	-5.7791840E-006	4.4818702E-007
2	1	0	0	1	4.280727891859715E+002	-3.8660017E-001	-3.8678759E-001	-7.689682732074082E-004	2.000000000000000E+000	-5.7984212E-006	2.9742739E-007
2	1	0	0	1	4.280912891855041E+002	-3.6801547E-001	-3.6818388E-001	-3.855937596237390E-004	2.000000000000000E+000	-5.8163587E-006	1.4196941E-007
2	1	0	0	1	4.280944891854233E+002	-3.6481670E-001	-3.6500320E-001	-3.371146465610757E-004	2.000000000000000E+000	-5.8174646E-006	1.2304793E-007
2	1	0	1	1	4.280978891853374E+002	-3.6141804E-001	-3.6161307E-001	-2.769353813505404E-004	2.000000000000000E+000	-5.8184314E-006	1.0014345E-007
2	1	0	0	1	4.281012891852515E+002	-3.5801929E-001	-3.5820672E-001	-2.201433306064848E-004	2.000000000000000E+000	-5.8192245E-006	7.8856822E-008
2	1	0	0	1	4.281044891851707E+002	-3.5482055E-001	-3.5501361E-001	-1.713628943169473E-004	2.000000000000000E+000	-5.8198002E-006	6.0836157E-008
2	1	0	1	1	4.281078891850848E+002	-3.5142183E-001	-3.5163614E-001	-1.114442773181658E-004	2.000000000000000E+000	-5.8202063E-006	3.9187835E-008
2	1	0	0	1	4.281112891849989E+002	-3.4802312E-001	-3.4822622E-001	-5.203042807503771E-005	2.000000000000000E+000	-5.8204241E-006	1.8118360E-008
2	1	0	0	1	4.281144891849181E+002	-3.4482434E-001	-3.4501833E-001	-1.193676457074134E-005	2.000000000000000E+000	-5.8204751E-006	4.1184025E-009
2	1	0	1	1	4.281178891848322E+002	-3.4142563E-001	-3.4163606E-001	4.538167041185184E-005	2.000000000000000E+000	-5.8203441E-006	1.5504016E-008
2	1	0	0	1	4.281212891847463E+002	-3.3802694E-001	-3.3820030E-001	1.083340456200214E-004	2.000000000000000E+000	-5.8200253E-006	3.6638607E-008
2	1	0	0	1	4.281244891846654E+002	-3.3482814E-001	-3.3500567E-001	1.501213121827051E-004	2.000000000000000E+000	-5.8195633E-006	5.0291490E-008
2	1	0	1	1	4.281278891845795E+002	-3.3142945E-001	-3.3160120E-001	2.010225903594203E-004	2.000000000000000E+000	-5.8188966E-006	6.6659332E-008
2	1	0	0	1	4.281312891844937E+002	-3.2803074E-001	-3.2819185E-001	2.542735549657966E-004	2.000000000000000E+000	-5.8180717E-006	8.3450509E-008
2	1	0	0	1	4.281344891844128E+002	-3.2483196E-001	-3.2498547E-001	2.988809669034254E-004	2.000000000000000E+000	-5.8171395E-006	9.7131974E-008
2	1	0	1	1	4.281378891843269E+002	-3.2143328E-001	-3.2159144E-001	3.442042337762057E-004	2.000000000000000E+000	-5.8159753E-006	1.1069314E-007
2	1	0	0	1	4.281412891842410E+002	-3.1803456E-001	-3.1822625E-001	3.835667847207937E-004	2.000000000000000E+000	-5.8146798E-006	1.2206102E-007
2	1	0	0	1	4.281444891841602E+002	-3.1483579E-001	-3.1500959E-001	4.340027094334193E-004	2.000000000000000E+000	-5.8133219E-006	1.3671502E-007
2	1	0	1	1	4.281478891840743E+002	-3.1143704E-001	-3.1162989E-001	4.754098041795871E-004	2.000000000000000E+000	-5.8117057E-006	1.4815191E-007
2	1	0	0	1	4.281512891839884E+002	-3.0803835E-001	-3.0821675E-001	5.292684727767980E-004	2.000000000000000E+000	-5.8099422E-006	1.6312941E-007
2	1	0	0	1	4.281544891839076E+002	-3.0483955E-001	-3.0501536E-001	5.749071055712804E-004	2.000000000000000E+000	-5.8081237E-006	1.7535550E-007
2	1	0	1	1	4.281578891838217E+002	-3.0144086E-001	-3.0163902E-001	6.177280902268951E-004	2.000000000000000E+000	-5.8060214E-006	1.8633089E-007
2	1	0	0	1	4.281612891837358E+002	-2.9804218E-001	-2.9821897E-001	6.642605507371016E-004	2.000000000000000E+000	-5.8037876E-006	1.9809509E-007
2	1	0	0	1	4.281644891836550E+002	-2.9484338E-001	-2.9500642E-001	7.193373499073154E-004	2.000000000000000E+000	-5.8015230E-006	2.1220914E-007
2	1	0	1	1	4.281678891835691E+002	-2.9144469E-001	-2.9159185E-001	7.507213504974672E-004	2.000000000000000E+000	-5.7989478E-006	2.1890423E-007
2	1	0	0	1	4.281712891834832E+002	-2.8804597E-001	-2.8820518E-001	8.027898432449825E-004	2.000000000000000E+000	-5.7962488E-006	2.3136819E-007
2	1	0	0	1	4.281744891834023E+002	-2.8484720E-001	-2.8499070E-001	8.436387812253091E-004	2.000000000000000E+000	-5.7935658E-006	2.4042922E-007
2	1	0	1	1	4.281778891833164E+002	-2.8144848E-001	-2.8158593E-001	8.811373498171359E-004	2.000000000000000E+000	-5.7905613E-006	2.4811590E-007
2	1	0	0	1	4.281812891832305E+002	-2.7804977E-001	-2.7818781E-001	9.234764360447449E-004	2.000000000000000E+000	-5.7874381E-006	2.5689988E-007
2	1	0	0	1	4.281844891831497E+002	-2.7485102E-001	-2.7501032E-001	9.540569123373682E-004	2.000000000000000E+000	-5.7843822E-006	2.6237549E-007
2	1	0	1	1	4.281878891830638E+002	-2.7145231E-001	-2.7160633E-001	1.009546921363837E-003	2.000000000000000E+000	-5.7809671E-006	2.7419932E-007
2	1	0	0	1	4.281912891829779E+002	-2.6805362E-001	-2.6821899E-001	1.048604221773525E-003	2.000000000000000E+000	-5.7774146E-006	2.8125558E-007
2	1	0	0	1	4.281944891828971E+002	-2.6485485E-001	-2.6502526E-001	1.092142339598468E-003	2.000000000000000E+000	-5.7739408E-006	2.8944530E-007
2	1	0	1	1	4.281978891828112E+002	-2.6145613E-001	-2.6161632E-001	1.136331461081380E-003	2.000000000000000E+000	-5.7700813E-006	2.9728287E-007
2	1	0	0	1	4.282012891827253E+002	-2.5805745E-001	-2.5821513E-001	1.176191161804736E-003	2.000000000000000E+000	-5.7661000E-006	3.0371035E-007
2	1	0	0	1	4.282044891826445E+002	-2.5485864E-001	-2.5503805E-001	1.213418937171203E-003	2.000000000000000E+000	-5.7622278E-006	3.0946799E-007
2	1	0	1	1	4.282078891825586E+002	-2.5145993E-001	-2.5162643E-001	1.257532974250354E-003	2.000000000000000E+000	-5.7579532E-006	3.1642853E-007
2	1	0	0	1	4.282112891824727E+002	-2.4806121E-001	-2.4823147E-001	1.293685021649553E-003	2.000000000000000E+000	-5.7535572E-006	3.2113334E-007
2	1	0	0	1	4.282144891823918E+002	-2.4486245E-001	-2.4503264E-001	1.340797367644579E-003	2.000000000000000E+000	-5.7492930E-006	3.2853913E-007
2	1	0	1	1	4.282178891823060E+002	-2.4146372E-001	-2.4161337E-001	1.396692983068229E-003	2.000000000000000E+000	-5.7445668E-006	3.3745971E-007
2	1	0	0	1	4.282212891822201E+002	-2.3806502E-001	-2.3823190E-001	1.423588682731253E-003	2.000000000000000E+000	-5.7397156E-006	3.3914424E-007
2	1	0	0	1	4.282244891821392E+002	-2.3486623E-001	-2.3503572E-001	1.470375502155237E-003	2.000000000000000E+000	-5.7350344E-006	3.4559076E-007
2	1	0	1	1	4.282278891820533E+002	-2.3146755E-001	-2.3164396E-001	1.504233699779432E-003	2.000000000000000E+000	-5.7299103E-006	3.4844666E-007
2	1	0	0	1	4.282312891819674E+002	-2.2806884E-001	-2.2825345E-001	1.549146299294077E-003	2.000000000000000E+000	-5.7246621E-006	3.5359798E-007
2	1	0	0	1	4.282344891818866E+002	-2.2487006E-001	-2.2506239E-001	1.592102064751091E-003	2.000000000000000E+000	-5.7195880E-006	3.5832230E-007
2	1	0	1	1	4.282378891818007E+002	-2.2147135E-001	-2.2163056E-001	1.644738909317312E-003	2.000000000000000E+000	-5.7140137E-006	3.6452440E-007
2	1	0	0	1	4.282411891817173E+002	-2.1811549E-001	-2.1828349E-001	1.701298460716323E-003	2.000000000000000E+000	-5.7084453E-006	3.7136536E-007
2	1	0	0	1	4.282444891816340E+002	-2.1480724E-001	-2.1498536E-001	1.730467434223710E-003	2.000000000000000E+000	-5.7027091E-006	3.7202517E-007
2	1	0	1	1	4.282478891815481E+002	-2.1140853E-001	-2.1155606E-001	1.777776760536660E-003	2.000000000000000E+000	-5.6966869E-006	3.7609945E-007
2	1	0	1	1	4.282510891814673E+002	-2.0820975E-001	-2.0837833E-001	1.821900929174567E-003	2.000000000000000E+000	-5.6908771E-006	3.7964466E-007
2	1	0	0	1	4.282544891813814E+002	-2.0481107E-001	-2.0497346E-001	1.859179530508001E-003	2.000000000000000E+000	-5.6845493E-006	3.8108246E-007
2	1	0	1	1	4.282578891812955E+002	-2.0141234E-001	-2.0157965E-001	1.909625655328755E-003	2.000000000000000E+000	-5.6780855E-006	3.8494167E-007
2	1	0	1	1	4.282610891812146E+002	-1.9821355E-001	-1.9835906E-001	1.954412272349753E-003	2.000000000000000E+000	-5.6718495E-006	3.8767539E-007
2	1	0	0	1	4.282644891811287E+002	-1.9481486E-001	-1.9498764E-001	1.988559284291116E-003	2.000000000000000E+000	-5.6650697E-006	3.8774448E-007
2	1	0	1	1	4.282678891810428E+002	-1.9141616E-001	-1.9157436E-001	2.039625738886268E-003	2.000000000000000E+000	-5.6581644E-006	3.9074001E-007
2	1	0	1	1	4.282710891809620E+002	-1.8821737E-001	-1.8838343E-001	2.077505644410851E-003	2.000000000000000E+000	-5.6515314E-006	3.9136765E-007
2	1	0	0	1	4.282744891808761E+002	-1.8481867E-001	-1.8499087E-001	2.125193834808671E-003	2.000000000000000E+000	-5.6443105E-006	3.9314145E-007
2	1	0	1	1	4.282778891807902E+002	-1.8141997E-001	-1.8159185E-001	2.168032821782616E-003	2.000000000000000E+000	-5.6369568E-006	3.9369709E-007
2	1	0	1	1	4.282810891807094E+002	-1.7822118E-001	-1.7837596E-001	2.215819027029900E-003	2.000000000000000E+000	-5.6298927E-006	3.9524883E-007
2	1	0	0	1	4.282844891806235E+002	-1.7482248E-001	-1.7499575E-001	2.261446017140158E-003	2.000000000000000E+000	-5.6222061E-006	3.9574346E-007
2	1	0	1	1	4.282878891805376E+002	-1.7142379E-001	-1.7160970E-001	2.308473191866747E-003	2.000000000000000E+000	-5.6143804E-006	3.9615639E-007
2	1	0	1	1	4.282910891804568E+002	-1.6822501E-001	-1.6840132E-001	2.351820539449066E-003	2.000000000000000E+000	-5.6068761E-006	3.9604967E-007
2	1	0	0	1	4.282944891803709E+002	-1.6482630E-001	-1.6500090E-001	2.393526316397276E-003	2.000000000000000E+000	-5.5987330E-006	3.9493401E-007
2	1	0	1	1	4.282978891802850E+002	-1.6142757E-001	-1.6159742E-001	2.445855571234765E-003	2.000000000000000E+000	-5.5904488E-006	3.9524394E-007
2	1	0	1	1	4.283010891802041E+002	-1.5822878E-001	-1.5838471E-001	2.493363150460948E-003	2.000000000000000E+000	-5.5824967E-006	3.9491061E-007
2	1	0	0	1	4.283044891801183E+002	-1.5483008E-001	-1.5497082E-001	2.534400185292426E-003	2.000000000000000E+000	-5.5738756E-006	3.9275810E-007
2	1	0	1	1	4.283078891800324E+002	-1.5143138E-001	-1.5158923E-001	2.582229675469236E-003	2.000000000000000E+000	-5.5651235E-006	3.9143822E-007
2	1	0	1	1	4.283110891799515E+002	-1.4823261E-001	-1.4839952E-001	2.618765841968212E-003	2.000000000000000E+000	-5.5567511E-006	3.8862359E-007
2	1	0	0	1	4.283144891798656E+002	-1.4483391E-001	-1.4498653E-001	2.665244774016178E-003	2.000000000000000E+000	-5.5476962E-006	3.8642457E-007
2	1	0	1	1	4.283178891797797E+002	-1.4143519E-001	-1.4161012E-001	2.713488653656291E-003	2.000000000000000E+000	-5.5384940E-006	3.8425745E-007
2	1	0	1	1	4.283210891796989E+002	-1.3823643E-001	-1.3840136E-001	2.765396939988327E-003	2.000000000000000E+000	-5.5296750E-006	3.8273470E-007
2	1	0	0	1	4.283244891796130E+002	-1.3483772E-001	-1.3498874E-001	2.816225828913350E-003	2.000000000000000E+000	-5.5201167E-006	3.8015878E-007
2	1	0	1	1	4.283278891795271E+002	-1.3143902E-001	-1.3157775E-001	2.857785510574716E-003	2.000000000000000E+000	-5.5104169E-006	3.7602098E-007
2	1	0	1	1	4.283310891794463E+002	-1.2824023E-001	-1.2840968E-001	2.899951420234484E-003	2.000000000000000E+000	-5.5011556E-006	3.7238183E-007
2	1	0	0	1	4.283344891793604E+002	-1.2484153E-001	-1.2498078E-001	2.963273967937621E-003	2.000000000000000E+000	-5.4911161E-006	3.7035230E-007
2	1	0	1	1	4.283378891792745E+002	-1.2144282E-001	-1.2157068E-001	3.008934317434361E-003	2.000000000000000E+000	-5.4809034E-006	3.6579820E-007
2	1	0	1	1	4.283410891791937E+002	-1.1824403E-001	-1.1835697E-001	3.060375720360747E-003	2.000000000000000E+000	-5.4711390E-006	3.6221678E-007
2	1	0	0	1	4.283444891791078E+002	-1.1484534E-001	-1.1496861E-001	3.104166783092905E-003	2.000000000000000E+000	-5.4605889E-006	3.5688174E-007
2	1	0	1	1	4.283478891790219E+002	-1.1144663E-001	-1.1157557E-001	3.144506158029496E-003	2.000000000000000E+000	-5.4499169E-006	3.5085006E-007
2	1	0	1	1	4.283510891789410E+002	-1.0824785E-001	-1.0838360E-001	3.191478667758929E-003	2.000000000000000E+000	-5.4397296E-006	3.4590394E-007
2	1	0	0	1	4.283544891788551E+002	-1.0484916E-001	-1.0497427E-001	3.234614788865067E-003	2.000000000000000E+000	-5.4287248E-006	3.3955132E-007
2	1	0	1	1	4.283578891787693E+002	-1.0145044E-001	-1.0160042E-001	3.289176645133325E-003	2.000000000000000E+000	-5.4175803E-006	3.3418175E-007
2	1	0	1	1	4.283610891786884E+002	-9.8251663E-002	-9.8412521E-002	3.330357451068286E-003	2.000000000000000E+000	-5.4069392E-006	3.2774886E-007
2	1	0	0	1	4.283644891786025E+002	-9.4852962E-002	-9.4997607E-002	3.387323639132474E-003	2.000000000000000E+000	-5.3954436E-006	3.2178764E-007
2	1	0	1	1	4.283678891785166E+002	-9.1454253E-002	-9.1579877E-002	3.434662319796188E-003	2.000000000000000E+000	-5.3837907E-006	3.1454596E-007
2	1	0	1	1	4.283710891784358E+002	-8.8255480E-002	-8.8400245E-002	3.470336224715251E-003	2.000000000000000E+000	-5.3726926E-006	3.0677856E-007
2	1	0	0	1	4.283744891783499E+002	-8.4856771E-002	-8.5003629E-002	3.521236223756802E-003	2.000000000000000E+000	-5.3607287E-006	2.9931786E-007
2	1	0	1	1	4.283778891782640E+002	-8.1458069E-002	-8.1607409E-002	3.562087553351981E-003	2.000000000000000E+000	-5.3486301E-006	2.9069273E-007
2	1	0	1	1	4.283810891781832E+002	-7.8259274E-002	-7.8406140E-002	3.607249389157605E-003	2.000000000000000E+000	-5.3371086E-006	2.8283051E-007
2	1	0	0	1	4.283844891780973E+002	-7.4860565E-002	-7.5012721E-002	3.654332482953285E-003	2.000000000000000E+000	-5.3246908E-006	2.7412142E-007
2	1	0	1	1	4.283878891780114E+002	-7.1461871E-002	-7.1619295E-002	3.709368521625331E-003	2.000000000000000E+000	-5.3121139E-006	2.6566235E-007
2	1	0	1	1	4.283910891779306E+002	-6.8263099E-002	-6.8418548E-002	3.744531600447475E-003	2.000000000000000E+000	-5.3001381E-006	2.5619542E-007
2	1	0	0	1	4.283944891778447E+002	-6.4864390E-002	-6.5015964E-002	3.790919152409818E-003	2.000000000000000E+000	-5.2872547E-006	2.4647025E-007
2	1	0	1	1	4.283978891777588E+002	-6.1465684E-002	-6.1626468E-002	3.820882639259553E-003	2.000000000000000E+000	-5.2742521E-006	2.3546750E-007
2	1	0	1	1	4.284010891776779E+002	-5.8266900E-002	-5.8425847E-002	3.873955636906144E-003	2.000000000000000E+000	-5.2618880E-006	2.2633914E-007
2	1	0	0	1	4.284044891775920E+002	-5.4868199E-002	-5.5022877E-002	3.920525787452789E-003	2.000000000000000E+000	-5.2485652E-006	2.1571860E-007
2	1	0	1	1	4.284078891775061E+002	-5.1469494E-002	-5.1644713E-002	3.966009670269464E-003	2.000000000000000E+000	-5.2351011E-006	2.0482344E-007
2	1	0	1	1	4.284110891774253E+002	-4.8270714E-002	-4.8416108E-002	4.007198062845427E-003	2.000000000000000E+000	-5.2222958E-006	1.9401294E-007
2	1	0	0	1	4.284144891773394E+002	-4.4849798E-002	-4.5026239E-002	4.058916528720140E-003	2.000000000000000E+000	-5.2085143E-006	1.8275774E-007
2	1	0	0	1	4.284176891772586E+002	-4.1606586E-002	-4.1760504E-002	4.109750527610836E-003	2.000000000000000E+000	-5.1953916E-006	1.7162526E-007
2	1	0	1	1	4.284210891771727E+002	-3.8207881E-002	-3.8326249E-002	4.155362431902183E-003	2.000000000000000E+000	-5.1812699E-006	1.5925946E-007
2	1	0	0	1	4.284244891770868E+002	-3.4809180E-002	-3.4939434E-002	4.181278013766151E-003	2.000000000000000E+000	-5.1670431E-006	1.4609149E-007
2	1	0	0	1	4.284276891770060E+002	-3.1610399E-002	-3.1753562E-002	4.219398017782337E-003	2.000000000000000E+000	-5.1535526E-006	1.3398092E-007
2	1	0	1	1	4.284310891769201E+002	-2.8211696E-002	-2.8337242E-002	4.267639378728441E-003	2.000000000000000E+000	-5.1390489E-006	1.2093314E-007
2	1	0	0	1	4.284344891768342E+002	-2.4812989E-002	-2.4933003E-002	4.295048765925471E-003	2.000000000000000E+000	-5.1244369E-006	1.0708846E-007
2	1	0	0	1	4.284376891767533E+002	-2.1614209E-002	-2.1760490E-002	4.330272870568794E-003	2.000000000000000E+000	-5.1105885E-006	9.4228859E-008
2	1	0	1	1	4.284410891766674E+002	-1.8215504E-002	-1.8366678E-002	4.373523490933937E-003	2.000000000000000E+000	-5.0957192E-006	8.0327098E-008
2	1	0	0	1	4.284444891765816E+002	-1.4816800E-002	-1.4964728E-002	4.410404096324788E-003	2.000000000000000E+000	-5.0807312E-006	6.6000496E-008
2	1	0	0	1	4.284476891765007E+002	-1.1618019E-002	-1.1767411E-002	4.449458854681641E-003	2.000000000000000E+000	-5.0665080E-006	5.2358608E-008
2	1	0	1	1	4.284510891764148E+002	-8.2193157E-003	-8.3554145E-003	4.484123479596751E-003	2.000000000000000E+000	-5.0512440E-006	3.7466709E-008
2	1	0	0	1	4.284544891763289E+002	-4.8206109E-003	-4.9743224E-003	4.523012909248794E-003	2.000000000000000E+000	-5.0358731E-006	2.2498924E-008
2	1	0	0	1	4.284576891762481E+002	-1.6218303E-003	-1.7686120E-003	4.559219754355567E-003	2.000000000000000E+000	-5.0212921E-006	8.0634903E-009
2	1	0	1	1	4.284610891761622E+002	1.7768735E-003	1.6464369E-003	4.595008235234387E-003	2.000000000000000E+000	-5.0056551E-006	7.5653910E-009
2	1	0	0	1	4.284644891760763E+002	5.1755765E-003	5.0668260E-003	4.637067566636684E-003	2.000000000000000E+000	-4.9899022E-006	2.3495215E-008
2	1	0	0	1	4.284676891759955E+002	8.3743557E-003	8.2455724E-003	4.642632691532825E-003	2.000000000000000E+000	-4.9750092E-006	3.8281165E-008
2	1	0	1	1	4.284710891759096E+002	1.1773058E-002	1.1674993E-002	4.682317032620634E-003	2.000000000000000E+000	-4.9590781E-006	5.4666017E-008
2	1	0	0	1	4.284744891758237E+002	1.5171762E-002	1.5077831E-002	4.712545457459777E-003	2.000000000000000E+000	-4.9430550E-006	7.1054963E-008
2	1	0	0	1	4.284776891757429E+002	1.8370541E-002	1.8267006E-002	4.736483676424541E-003	2.000000000000000E+000	-4.9278883E-006	8.6521375E-008
2	1	0	1	1	4.284810891756570E+002	2.1769242E-002	2.1680020E-002	4.764742272982410E-003	2.000000000000000E+000	-4.9116675E-006	1.0329970E-007
2	1	0	0	1	4.284844891755711E+002	2.5167944E-002	2.5059460E-002	4.789033959696112E-003	2.000000000000000E+000	-4.8953707E-006	1.2001060E-007
2	1	0	0	1	4.284876891754902E+002	2.8366724E-002	2.8244181E-002	4.811083840892627E-003	2.000000000000000E+000	-4.8799611E-006	1.3588512E-007
2	1	0	1	1	4.284910891754043E+002	3.1765427E-002	3.1642314E-002	4.830666920922051E-003	2.000000000000000E+000	-4.8635020E-006	1.5285347E-007
2	1	0	0	1	4.284944891753184E+002	3.5164129E-002	3.5053290E-002	4.861425584203967E-003	2.000000000000000E+000	-4.8469715E-006	1.7040897E-007
2	1	0	0	1	4.284976891752376E+002	3.8362909E-002	3.8249847E-002	4.879353686677260E-003	2.000000000000000E+000	-4.8313409E-006	1.8663452E-007
2	1	0	1	1	4.285010891751517E+002	4.1761611E-002	4.1647211E-002	4.895043571256492E-003	2.000000000000000E+000	-4.8146539E-006	2.0386491E-007
2	1	0	0	1	4.285044891750658E+002	4.5160316E-002	4.5057680E-002	4.921439605520092E-003	2.000000000000000E+000	-4.7979133E-006	2.2174865E-007
2	1	0	0	1	4.285076891749850E+002	4.8359092E-002	4.8266064E-002	4.932031154142660E-003	2.000000000000000E+000	-4.7820986E-006	2.3804974E-007
2	1	0	1	1	4.285110891748991E+002	5.1757798E-002	5.1688612E-002	4.950814297444595E-003	2.000000000000000E+000	-4.7652275E-006	2.5590072E-007
2	1	0	0	1	4.285144891748132E+002	5.5156503E-002	5.5076316E-002	4.969045081573633E-003	2.000000000000000E+000	-4.7483131E-006	2.7367670E-007
2	1	0	0	1	4.285176891747324E+002	5.8355279E-002	5.8286995E-002	4.982585504694735E-003	2.000000000000000E+000	-4.7323433E-006	2.9041993E-007
2	1	0	1	1	4.285210891746465E+002	6.1753988E-002	6.1670996E-002	4.986739346289439E-003	2.000000000000000E+000	-4.7153276E-006	3.0753719E-007
2	1	0	0	1	4.285244891745606E+002	6.5152690E-002	6.5066338E-002	4.998609847765088E-003	2.000000000000000E+000	-4.6983037E-006	3.2524125E-007
2	1	0	0	1	4.285276891744797E+002	6.8351462E-002	6.8254620E-002	5.005182161949055E-003	2.000000000000000E+000	-4.6822493E-006	3.4162682E-007
2	1	0	1	1	4.285310891743939E+002	7.1750171E-002	7.1644872E-002	5.017041111386789E-003	2.000000000000000E+000	-4.6651417E-006	3.5944527E-007
2	1	0	0	1	4.285344891743080E+002	7.5148873E-002	7.5044014E-002	5.024760507755376E-003	2.000000000000000E+000	-4.6480209E-006	3.7707821E-007
2	1	0	0	1	4.285376891742271E+002	7.8347653E-002	7.8263469E-002	5.033803048233212E-003	2.000000000000000E+000	-4.6318778E-006	3.9396289E-007
2	1	0	1	1	4.285410891741412E+002	8.1746355E-002	8.1665412E-002	5.036797784911579E-003	2.000000000000000E+000	-4.6146815E-006	4.1133217E-007
2	1	0	0	1	4.285444891740553E+002	8.5145056E-002	8.5018270E-002	5.044623802192907E-003	2.000000000000000E+000	-4.5974898E-006	4.2888519E-007
2	1	0	0	1	4.285476891739745E+002	8.8343829E-002	8.8233761E-002	5.049865697886469E-003	2.000000000000000E+000	-4.5812967E-006	4.4556865E-007
2	1	0	1	1	4.285510891738886E+002	9.1742538E-002	9.1626443E-002	5.055311637685619E-003	2.000000000000000E+000	-4.5640572E-006	4.6320022E-007
2	1	0	0	1	4.285544891738027E+002	9.5141239E-002	9.5033981E-002	5.066982437589712E-003	2.000000000000000E+000	-4.5467968E-006	4.8153549E-007
2	1	0	0	1	4.285575891737244E+002	9.8240070E-002	9.8135658E-002	5.074552101372573E-003	2.000000000000000E+000	-4.5310330E-006	4.9799451E-007
2	1	0	1	1	4.285591891736840E+002	9.9906117E-002	9.9757366E-002	5.060109775513411E-003	2.000000000000000E+000	-4.5228921E-006	5.0478320E-007
2	0	0	0	1	4.285595891736739E+002	1.0023932E-001	1.0023428E-001	5.111184902489185E-003	2.000000000000000E+000	-4.5208408E-006	5.1231598E-007
2	0	0	1	1	4.285612891736309E+002	9.8473303E-002	9.8404258E-002	3.549817981274846E-003	2.000000000000000E+000	-4.5146776E-006	3.4931722E-007
2	0	0	0	1	4.285646891735450E+002	9.5074601E-002	9.4907820E-002	2.309746033961335E-003	2.000000000000000E+000	-4.5050288E-006	2.1921296E-007
2	0	0	1	1	4.285680891734592E+002	9.1675900E-002	9.1521002E-002	1.861685655406599E-003	2.000000000000000E+000	-4.4980561E-006	1.7038333E-007
2	0	0	1	1	4.285712891733783E+002	8.8477120E-002	8.8310838E-002	1.593816080291314E-003	2.000000000000000E+000	-4.4926041E-006	1.4075124E-007
2	0	0	0	1	4.285746891732924E+002	8.5078411E-002	8.4907241E-002	1.374707834838777E-003	2.000000000000000E+000	-4.4876524E-006	1.1672265E-007
2	0	0	1	1	4.285780891732065E+002	8.1679702E-002	8.1519537E-002	1.191384180947353E-003	2.000000000000000E+000	-4.4833587E-006	9.7121088E-008
2	0	0	1	1	4.285812891731257E+002	7.8480929E-002	7.8336596E-002	1.029557446031506E-003	2.000000000000000E+000	-4.4798689E-006	8.0652029E-008
2	0	0	0	1	4.285846891730398E+002	7.5082228E-002	7.4918494E-002	8.725828063764658E-004	2.000000000000000E+000	-4.4767189E-006	6.5372589E-008
2	0	0	1	1	4.285880891729539E+002	7.1683526E-002	7.1506493E-002	7.415234714471825E-004	2.000000000000000E+000	-4.4740373E-006	5.3023744E-008
2	0	0	1	1	4.285912891728731E+002	6.8484738E-002	6.8333350E-002	6.213467130199504E-004	2.000000000000000E+000	-4.4719131E-006	4.2458701E-008
2	0	0	0	1	4.285946891727872E+002	6.5086037E-002	6.4944118E-002	5.029958501343878E-004	2.000000000000000E+000	-4.4700828E-006	3.2666623E-008
2	0	0	1	1	4.285980891727013E+002	6.1687339E-002	6.1540131E-002	3.860512809713631E-004	2.000000000000000E+000	-4.4686308E-006	2.3757647E-008
2	0	0	1	1	4.286012891726205E+002	5.8488563E-002	5.8367997E-002	2.914923781077061E-004	2.000000000000000E+000	-4.4676030E-006	1.7013827E-008
2	0	0	0	1	4.286046891725346E+002	5.5089854E-002	5.4954857E-002	1.780443423228921E-004	2.000000000000000E+000	-4.4668832E-006	9.7844017E-009
2	0	0	1	1	4.286080891724487E+002	5.1691152E-002	5.1538542E-002	8.503285751828606E-005	2.000000000000000E+000	-4.4664971E-006	4.3824695E-009
2	0	0	1	1	4.286112891723678E+002	4.8492379E-002	4.8332192E-002	-4.939794630291311E-006	2.000000000000000E+000	-4.4664248E-006	2.3875110E-010
2	0	0	0	1	4.286146891722819E+002	4.5093674E-002	4.4939026E-002	-9.900790354701403E-005	2.000000000000000E+000	-4.4666835E-006	4.4493187E-009
2	0	0	1	1	4.286180891721961E+002	4.1694973E-002	4.1508969E-002	-1.885978488256040E-004	2.000000000000000E+000	-4.4672365E-006	7.8285023E-009
2	0	0	1	1	4.286212891721152E+002	3.8496193E-002	3.8323358E-002	-2.631944671691141E-004	2.000000000000000E+000	-4.4680087E-006	1.0086496E-008
2	0	0	0	1	4.286246891720293E+002	3.5097491E-002	3.4918483E-002	-3.482109028709593E-004	2.000000000000000E+000	-4.4691242E-006	1.2158996E-008
2	0	0	1	1	4.286280891719434E+002	3.1698786E-002	3.1502414E-002	-4.277751814432433E-004	2.000000000000000E+000	-4.4705066E-006	1.3475951E-008
2	0	0	1	1	4.286312891718626E+002	2.8500007E-002	2.8311076E-002	-4.991435408442154E-004	2.000000000000000E+000	-4.4720414E-006	1.4131291E-008
2	0	0	0	1	4.286346891717767E+002	2.5101306E-002	2.4913963E-002	-5.733638115884808E-004	2.000000000000000E+000	-4.4739359E-006	1.4284764E-008
2	0	0	1	1	4.286380891716908E+002	2.1702601E-002	2.1538721E-002	-6.423086488894104E-004	2.000000000000000E+000	-4.4760623E-006	1.3834507E-008
2	0	0	1	1	4.286412891716100E+002	1.8503822E-002	1.8333394E-002	-7.158970255432022E-004	2.000000000000000E+000	-4.4782855E-006	1.3124822E-008
2	0	0	0	1	4.286446891715241E+002	1.5105120E-002	1.4930810E-002	-7.857001181719187E-004	2.000000000000000E+000	-4.4809121E-006	1.1731139E-008
2	0	0	1	1	4.286480891714382E+002	1.1706417E-002	1.1520087E-002	-8.624811034148167E-004	2.000000000000000E+000	-4.4837702E-006	9.9358575E-009
2	0	0	1	1	4.286512891713573E+002	8.5076373E-003	8.3113248E-003	-9.245549165370886E-004	2.000000000000000E+000	-4.4866820E-006	7.6842763E-009
2	0	0	0	1	4.286546891712715E+002	5.1089348E-003	4.9242573E-003	-9.861086696067408E-004	2.000000000000000E+000	-4.4900075E-006	4.8558526E-009
2	0	0	1	1	4.286580891711856E+002	1.7102322E-003	1.5006878E-003	-1.065355154749643E-003	2.000000000000000E+000	-4.4935541E-006	1.5987655E-009
2	0	0	1	1	4.286612891711047E+002	-1.4885477E-003	-1.7094727E-003	-1.122007353509006E-003	2.000000000000000E+000	-4.4971057E-006	1.9180411E-009
2	0	0	0	1	4.286646891710188E+002	-4.8872521E-003	-5.1133307E-003	-1.181464412934472E-003	2.000000000000000E+000	-4.5010929E-006	6.0412182E-009
2	0	0	1	1	4.286680891709329E+002	-8.2859565E-003	-8.5148988E-003	-1.244054398011938E-003	2.000000000000000E+000	-4.5052739E-006	1.0592998E-008
2	0	0	1	1	4.286712891708521E+002	-1.1484738E-002	-1.1706493E-002	-1.305142829687619E-003	2.000000000000000E+000	-4.5094039E-006	1.5278646E-008
2	0	0	0	1	4.286746891707662E+002	-1.4883442E-002	-1.5117344E-002	-1.363104639691907E-003	2.000000000000000E+000	-4.5140141E-006	2.0606523E-008
2	0	0	1	1	4.286780891706803E+002	-1.8282145E-002	-1.8504033E-002	-1.423103315300978E-003	2.000000000000000E+000	-4.5188081E-006	2.6333151E-008
2	0	0	1	1	4.286812891705995E+002	-2.1480925E-002	-2.1700712E-002	-1.471437503096239E-003	2.000000000000000E+000	-4.5234951E-006	3.1931240E-008
2	0	0	0	1	4.286846891705136E+002	-2.4879633E-002	-2.5069851E-002	-1.535890166026847E-003	2.000000000000000E+000	-4.5286806E-006	3.8504538E-008
2	0	0	1	1	4.286880891704277E+002	-2.8278336E-002	-2.8481212E-002	-1.594463518510256E-003	2.000000000000000E+000	-4.5340562E-006	4.5412254E-008
2	0	0	1	1	4.286912891703469E+002	-3.1477116E-002	-3.1703837E-002	-1.654290572241729E-003	2.000000000000000E+000	-4.5393058E-006	5.2447358E-008
2	0	0	0	1	4.286946891702610E+002	-3.4875818E-002	-3.5091545E-002	-1.706186148188248E-003	2.000000000000000E+000	-4.5450975E-006	5.9872711E-008
2	0	0	1	1	4.286980891701751E+002	-3.8274523E-002	-3.8506083E-002	-1.760046177105318E-003	2.000000000000000E+000	-4.5510437E-006	6.7772483E-008
2	0	0	1	1	4.287012891700942E+002	-4.1473307E-002	-4.1701999E-002	-1.822904511997576E-003	2.000000000000000E+000	-4.5568304E-006	7.6018765E-008
2	0	0	0	1	4.287046891700084E+002	-4.4916436E-002	-4.5170847E-002	-1.894296914360896E-003	2.000000000000000E+000	-4.5632196E-006	8.5566995E-008
2	0	0	0	1	4.287078891699275E+002	-4.8137434E-002	-4.8381768E-002	-1.928864673406378E-003	2.000000000000000E+000	-4.5693878E-006	9.3321880E-008
2	0	0	1	1	4.287112891698416E+002	-5.1536135E-002	-5.1777866E-002	-1.984548107399554E-003	2.000000000000000E+000	-4.5761180E-006	1.0275566E-007
2	0	0	0	1	4.287146891697557E+002	-5.4934841E-002	-5.5176899E-002	-2.034986689204751E-003	2.000000000000000E+000	-4.5830084E-006	1.1228425E-007
2	0	0	0	1	4.287178891696749E+002	-5.8133621E-002	-5.8374338E-002	-2.079173261139048E-003	2.000000000000000E+000	-4.5896454E-006	1.2137036E-007
2	0	0	1	1	4.287212891695890E+002	-6.1532326E-002	-6.1764084E-002	-2.137138769618713E-003	2.000000000000000E+000	-4.5968864E-006	1.3199842E-007
2	0	0	0	1	4.287246891695031E+002	-6.4931028E-002	-6.5152936E-002	-2.184149267835278E-003	2.000000000000000E+000	-4.6042869E-006	1.4230373E-007
2	0	0	0	1	4.287278891694223E+002	-6.8129808E-002	-6.8345159E-002	-2.236887851419549E-003	2.000000000000000E+000	-4.6114128E-006	1.5288046E-007
2	0	0	1	1	4.287312891693364E+002	-7.1528517E-002	-7.1748517E-002	-2.291166258964941E-003	2.000000000000000E+000	-4.6191849E-006	1.6438779E-007
2	0	0	0	1	4.287346891692505E+002	-7.4927211E-002	-7.5171702E-002	-2.342878559860158E-003	2.000000000000000E+000	-4.6271216E-006	1.7611816E-007
2	0	0	0	1	4.287378891691696E+002	-7.8125998E-002	-7.8357697E-002	-2.391753219944798E-003	2.000000000000000E+000	-4.6347482E-006	1.8741227E-007
2	0	0	1	1	4.287412891690838E+002	-8.1524707E-002	-8.1751883E-002	-2.443173267268624E-003	2.000000000000000E+000	-4.6430409E-006	1.9973402E-007
2	0	0	0	1	4.287446891689979E+002	-8.4923401E-002	-8.5157648E-002	-2.492300691028494E-003	2.000000000000000E+000	-4.6514892E-006	2.1223846E-007
2	0	0	0	1	4.287478891689170E+002	-8.8122182E-002	-8.8347591E-002	-2.547593979731269E-003	2.000000000000000E+000	-4.6596047E-006	2.2507379E-007
2	0	0	1	1	4.287512891688311E+002	-9.1520891E-002	-9.1739617E-002	-2.591128252424827E-003	2.000000000000000E+000	-4.6684086E-006	2.3770912E-007
2	0	0	0	1	4.287546891687452E+002	-9.4919592E-002	-9.5155314E-002	-2.645028760313526E-003	2.000000000000000E+000	-4.6773703E-006	2.5168853E-007
2	0	0	0	1	4.287578891686644E+002	-9.8118380E-002	-9.8341420E-002	-2.694100509931255E-003	2.000000000000000E+000	-4.6859623E-006	2.6494166E-007
2	0	0	1	1	4.287612891685785E+002	-1.0151708E-001	-1.0173943E-001	-2.736841291455981E-003	2.000000000000000E+000	-4.6952696E-006	2.7844467E-007
2	0	0	0	1	4.287646891684926E+002	-1.0491578E-001	-1.0512472E-001	-2.792468757646326E-003	2.000000000000000E+000	-4.7047301E-006	2.9355749E-007
2	0	0	0	1	4.287678891684118E+002	-1.0811457E-001	-1.0833235E-001	-2.836540815709055E-003	2.000000000000000E+000	-4.7137842E-006	3.0728913E-007
2	0	0	1	1	4.287712891683259E+002	-1.1151327E-001	-1.1172119E-001	-2.880864713885475E-003	2.000000000000000E+000	-4.7235781E-006	3.2185363E-007
2	0	0	0	1	4.287746891682400E+002	-1.1491198E-001	-1.1511488E-001	-2.936514892947648E-003	2.000000000000000E+000	-4.7335252E-006	3.3803656E-007
2	0	0	0	1	4.287778891681592E+002	-1.1811075E-001	-1.1833508E-001	-2.988154893773756E-003	2.000000000000000E+000	-4.7430563E-006	3.5360355E-007
2	0	0	1	1	4.287812891680733E+002	-1.2150946E-001	-1.2172457E-001	-3.032819725164379E-003	2.000000000000000E+000	-4.7533667E-006	3.6916867E-007
2	0	0	0	1	4.287846891679874E+002	-1.2490816E-001	-1.2511344E-001	-3.079636856515813E-003	2.000000000000000E+000	-4.7638096E-006	3.8530396E-007
2	0	0	0	1	4.287878891679065E+002	-1.2810695E-001	-1.2833121E-001	-3.133063306601486E-003	2.000000000000000E+000	-4.7738031E-006	4.0206982E-007
2	0	0	1	1	4.287912891678207E+002	-1.3150565E-001	-1.3171600E-001	-3.178819969252802E-003	2.000000000000000E+000	-4.7846070E-006	4.1870143E-007
2	0	0	0	1	4.287946891677348E+002	-1.3490437E-001	-1.3513042E-001	-3.225503647324025E-003	2.000000000000000E+000	-4.7955514E-006	4.3586365E-007
2	0	0	0	1	4.287978891676539E+002	-1.3810314E-001	-1.3834757E-001	-3.274043775430370E-003	2.000000000000000E+000	-4.8059997E-006	4.5295599E-007
2	0	0	1	1	4.288012891675680E+002	-1.4150184E-001	-1.4175142E-001	-3.321651916030524E-003	2.000000000000000E+000	-4.8172810E-006	4.7084887E-007
2	0	0	0	1	4.288046891674821E+002	-1.4490055E-001	-1.4513317E-001	-3.370053499838821E-003	2.000000000000000E+000	-4.8287075E-006	4.8910653E-007
2	0	0	0	1	4.288078891674013E+002	-1.4809932E-001	-1.4833772E-001	-3.411555811817374E-003	2.000000000000000E+000	-4.8396087E-006	5.0606241E-007
2	0	0	1	1	4.288112891673154E+002	-1.5149802E-001	-1.5172058E-001	-3.463080278652345E-003	2.000000000000000E+000	-4.8513698E-006	5.2542055E-007
2	0	0	0	1	4.288146891672295E+002	-1.5489674E-001	-1.5512279E-001	-3.514068048480118E-003	2.000000000000000E+000	-4.8632878E-006	5.4511202E-007
2	0	0	0	1	4.288178891671487E+002	-1.5809551E-001	-1.5832990E-001	-3.565880865092658E-003	2.000000000000000E+000	-4.8746656E-006	5.6458555E-007
2	0	0	1	1	4.288212891670628E+002	-1.6149423E-001	-1.6174164E-001	-3.617651909644332E-003	2.000000000000000E+000	-4.8869529E-006	5.8512495E-007
2	0	0	0	1	4.288246891669769E+002	-1.6489293E-001	-1.6514029E-001	-3.663538401391025E-003	2.000000000000000E+000	-4.8993807E-006	6.0499775E-007
2	0	0	0	1	4.288278891668961E+002	-1.6809173E-001	-1.6833991E-001	-3.718325426780215E-003	2.000000000000000E+000	-4.9112436E-006	6.2594256E-007
2	0	0	1	1	4.288312891668102E+002	-1.7149042E-001	-1.7172937E-001	-3.765428699231653E-003	2.000000000000000E+000	-4.9240411E-006	6.4663470E-007
2	0	0	0	1	4.288346891667243E+002	-1.7488912E-001	-1.7514366E-001	-3.813991801780498E-003	2.000000000000000E+000	-4.9369860E-006	6.6799646E-007
2	0	0	0	1	4.288378891666434E+002	-1.7808791E-001	-1.7832941E-001	-3.867744844319537E-003	2.000000000000000E+000	-4.9493269E-006	6.8973264E-007
2	0	0	1	1	4.288412891665575E+002	-1.8148661E-001	-1.8175185E-001	-3.922099840838189E-003	2.000000000000000E+000	-4.9626469E-006	7.1284887E-007
2	0	0	0	1	4.288446891664717E+002	-1.8488529E-001	-1.8514450E-001	-3.975905378229061E-003	2.000000000000000E+000	-4.9761270E-006	7.3611699E-007
2	0	0	0	1	4.288478891663908E+002	-1.8808410E-001	-1.8832920E-001	-4.024769243430142E-003	2.000000000000000E+000	-4.9889773E-006	7.5798158E-007
2	0	0	1	1	4.288512891663049E+002	-1.9148281E-001	-1.9172227E-001	-4.084250463771845E-003	2.000000000000000E+000	-5.0028375E-006	7.8304180E-007
2	0	0	0	1	4.288546891662190E+002	-1.9488150E-001	-1.9511378E-001	-4.134361199370079E-003	2.000000000000000E+000	-5.0168619E-006	8.0667081E-007
2	0	0	0	1	4.288578891661382E+002	-1.9808026E-001	-1.9831161E-001	-4.189618461411262E-003	2.000000000000000E+000	-5.0302301E-006	8.3085001E-007
2	0	0	1	1	4.288612891660523E+002	-2.0147896E-001	-2.0171484E-001	-4.251860185559050E-003	2.000000000000000E+000	-5.0446511E-006	8.5766334E-007
2	0	0	0	1	4.288646891659664E+002	-2.0487769E-001	-2.0511562E-001	-4.303428743181327E-003	2.000000000000000E+000	-5.0592525E-006	8.8270042E-007
2	0	0	0	1	4.288678891658856E+002	-2.0807648E-001	-2.0830432E-001	-4.356401386273023E-003	2.000000000000000E+000	-5.0731628E-006	9.0745721E-007
2	0	0	1	1	4.288712891657997E+002	-2.1147516E-001	-2.1172813E-001	-4.421783619848917E-003	2.000000000000000E+000	-5.0881599E-006	9.3621594E-007
2	0	0	0	1	4.288746891657138E+002	-2.1487387E-001	-2.1513809E-001	-4.478181203739929E-003	2.000000000000000E+000	-5.1033485E-006	9.6342740E-007
2	0	0	0	1	4.288778891656330E+002	-2.1809487E-001	-2.1833821E-001	-4.529457534287448E-003	2.000000000000000E+000	-5.1178222E-006	9.8895362E-007
2	0	0	1	1	4.288812891655471E+002	-2.2153801E-001	-2.2180273E-001	-4.613318509988529E-003	2.000000000000000E+000	-5.1334400E-006	1.0232466E-006
2	0	0	1	1	4.288844891654662E+002	-2.2473678E-001	-2.2501113E-001	-4.641029183464235E-003	2.000000000000000E+000	-5.1482934E-006	1.0442832E-006
2	0	0	0	1	4.288878891653803E+002	-2.2813550E-001	-2.2839005E-001	-4.691341873149193E-003	2.000000000000000E+000	-5.1642323E-006	1.0714558E-006
2	0	0	1	1	4.288912891652944E+002	-2.3153418E-001	-2.3181474E-001	-4.755484036801740E-003	2.000000000000000E+000	-5.1803468E-006	1.1023913E-006
2	0	0	1	1	4.288944891652136E+002	-2.3473296E-001	-2.3497456E-001	-4.794865848452895E-003	2.000000000000000E+000	-5.1956799E-006	1.1266715E-006
2	0	0	0	1	4.288978891651277E+002	-2.3813167E-001	-2.3837715E-001	-4.854798387714250E-003	2.000000000000000E+000	-5.2121572E-006	1.1572730E-006
2	0	0	1	1	4.289012891650418E+002	-2.4153037E-001	-2.4176508E-001	-4.904674880162919E-003	2.000000000000000E+000	-5.2288015E-006	1.1857791E-006
2	0	0	1	1	4.289044891649610E+002	-2.4472916E-001	-2.4498634E-001	-4.963154043980469E-003	2.000000000000000E+000	-5.2446417E-006	1.2159049E-006
2	0	0	0	1	4.289078891648751E+002	-2.4812786E-001	-2.4839069E-001	-5.014198965060751E-003	2.000000000000000E+000	-5.2616774E-006	1.2454803E-006
2	0	0	1	1	4.289112891647892E+002	-2.5152659E-001	-2.5178200E-001	-5.064926234384370E-003	2.000000000000000E+000	-5.2788678E-006	1.2752572E-006
2	0	0	1	1	4.289144891647084E+002	-2.5472537E-001	-2.5499365E-001	-5.113737502870197E-003	2.000000000000000E+000	-5.2952055E-006	1.3039705E-006
2	0	0	0	1	4.289178891646225E+002	-2.5812405E-001	-2.5836331E-001	-5.162653385862845E-003	2.000000000000000E+000	-5.3127465E-006	1.3338401E-006
2	0	0	1	1	4.289212891645366E+002	-2.6152277E-001	-2.6174912E-001	-5.203570210020797E-003	2.000000000000000E+000	-5.3304234E-006	1.3620299E-006
2	0	0	1	1	4.289244891644557E+002	-2.6472154E-001	-2.6496437E-001	-5.267427456298407E-003	2.000000000000000E+000	-5.3472281E-006	1.3956806E-006
2	0	0	0	1	4.289278891643698E+002	-2.6812026E-001	-2.6837444E-001	-5.314083452625115E-003	2.000000000000000E+000	-5.3652943E-006	1.4261642E-006
2	0	0	1	1	4.289312891642840E+002	-2.7151895E-001	-2.7176687E-001	-5.355862917955768E-003	2.000000000000000E+000	-5.3834883E-006	1.4555461E-006
2	0	0	1	1	4.289344891642031E+002	-2.7471775E-001	-2.7495283E-001	-5.403312653106687E-003	2.000000000000000E+000	-5.4007514E-006	1.4856561E-006
2	0	0	0	1	4.289378891641172E+002	-2.7811643E-001	-2.7834260E-001	-5.449694832896063E-003	2.000000000000000E+000	-5.4192760E-006	1.5168822E-006
2	0	0	1	1	4.289412891640313E+002	-2.8151512E-001	-2.8173614E-001	-5.495324206761618E-003	2.000000000000000E+000	-5.4379393E-006	1.5482314E-006
2	0	0	1	1	4.289444891639505E+002	-2.8471389E-001	-2.8492904E-001	-5.546867864783646E-003	2.000000000000000E+000	-5.4556549E-006	1.5804637E-006
2	0	0	0	1	4.289478891638646E+002	-2.8811261E-001	-2.8834051E-001	-5.602462038223149E-003	2.000000000000000E+000	-5.4746815E-006	1.6154167E-006
2	0	0	1	1	4.289512891637787E+002	-2.9151133E-001	-2.9174587E-001	-5.640200920424832E-003	2.000000000000000E+000	-5.4938491E-006	1.6455053E-006
2	0	0	1	1	4.289544891636979E+002	-2.9471010E-001	-2.9494372E-001	-5.686923954635860E-003	2.000000000000000E+000	-5.5120186E-006	1.6773225E-006
2	0	0	0	1	4.289578891636120E+002	-2.9810882E-001	-2.9836881E-001	-5.748279657018421E-003	2.000000000000000E+000	-5.5315345E-006	1.7151074E-006
2	0	0	1	1	4.289612891635261E+002	-3.0150750E-001	-3.0176744E-001	-5.788992499158943E-003	2.000000000000000E+000	-5.5512073E-006	1.7469295E-006
2	0	0	1	1	4.289644891634453E+002	-3.0470631E-001	-3.0496299E-001	-5.817702585166736E-003	2.000000000000000E+000	-5.5698306E-006	1.7741839E-006
2	0	0	0	1	4.289678891633594E+002	-3.0810499E-001	-3.0835766E-001	-5.880718473235895E-003	2.000000000000000E+000	-5.5897904E-006	1.8133645E-006
2	0	0	1	1	4.289712891632735E+002	-3.1150371E-001	-3.1177637E-001	-5.924152002141150E-003	2.000000000000000E+000	-5.6099107E-006	1.8470106E-006
2	0	0	1	1	4.289744891631926E+002	-3.1470248E-001	-3.1494853E-001	-5.967822776377328E-003	2.000000000000000E+000	-5.6289905E-006	1.8795570E-006
2	0	0	0	1	4.289778891631067E+002	-3.1810120E-001	-3.1835201E-001	-6.013823674948066E-003	2.000000000000000E+000	-5.6494341E-006	1.9145129E-006
2	0	0	1	1	4.289812891630208E+002	-3.2149988E-001	-3.2174507E-001	-6.064176964840351E-003	2.000000000000000E+000	-5.6700201E-006	1.9511190E-006
2	0	0	1	1	4.289844891629400E+002	-3.2469869E-001	-3.2492700E-001	-6.104663573205465E-003	2.000000000000000E+000	-5.6895378E-006	1.9835700E-006
2	0	0	0	1	4.289878891628541E+002	-3.2809740E-001	-3.2833520E-001	-6.167878940080605E-003	2.000000000000000E+000	-5.7104835E-006	2.0251318E-006
2	0	0	1	1	4.289912891627682E+002	-3.3149612E-001	-3.3175784E-001	-6.214679755248656E-003	2.000000000000000E+000	-5.7315888E-006	2.0617688E-006
2	0	0	1	1	4.289944891626874E+002	-3.3469489E-001	-3.3494896E-001	-6.261344445738358E-003	2.000000000000000E+000	-5.7515986E-006	2.0972309E-006
2	0	0	0	1	4.289978891626015E+002	-3.3809355E-001	-3.3835891E-001	-6.307994826299054E-003	2.000000000000000E+000	-5.7730435E-006	2.1343662E-006
2	0	0	1	1	4.290012891625156E+002	-3.4149227E-001	-3.4177804E-001	-6.373729422557525E-003	2.000000000000000E+000	-5.7946609E-006	2.1784008E-006
2	0	0	1	1	4.290044891624348E+002	-3.4469104E-001	-3.4497964E-001	-6.418004842877661E-003	2.000000000000000E+000	-5.8151768E-006	2.2140810E-006
2	0	0	0	1	4.290078891623489E+002	-3.4808975E-001	-3.4836519E-001	-6.468381970565457E-003	2.000000000000000E+000	-5.8371502E-006	2.2533591E-006
2	0	0	1	1	4.290112891622630E+002	-3.5148841E-001	-3.5176516E-001	-6.527674105018338E-003	2.000000000000000E+000	-5.8593046E-006	2.2962083E-006
2	0	0	1	1	4.290144891621821E+002	-3.5468724E-001	-3.5495251E-001	-6.575475207622111E-003	2.000000000000000E+000	-5.8803175E-006	2.3339815E-006
2	0	0	0	1	4.290178891620963E+002	-3.5808596E-001	-3.5837454E-001	-6.626312976550253E-003	2.000000000000000E+000	-5.9028325E-006	2.3747018E-006
2	0	0	1	1	4.290212891620104E+002	-3.6148465E-001	-3.6177713E-001	-6.675542297974374E-003	2.000000000000000E+000	-5.9254990E-006	2.4150586E-006
2	0	0	1	1	4.290244891619295E+002	-3.6468348E-001	-3.6495683E-001	-6.733042724408729E-003	2.000000000000000E+000	-5.9470008E-006	2.4572698E-006
2	0	0	0	1	4.290278891618436E+002	-3.6808214E-001	-3.6833495E-001	-6.787521752751919E-003	2.000000000000000E+000	-5.9700560E-006	2.5000816E-006
2	0	0	1	1	4.290312891617577E+002	-3.7148085E-001	-3.7174711E-001	-6.860540410525570E-003	2.000000000000000E+000	-5.9933150E-006	2.5503859E-006
2	0	0	1	1	4.290344891616769E+002	-3.7467963E-001	-3.7493587E-001	-6.906499553406317E-003	2.000000000000000E+000	-6.0153930E-006	2.5894944E-006
2	0	0	0	1	4.290378891615910E+002	-3.7807834E-001	-3.7834409E-001	-6.974102886306351E-003	2.000000000000000E+000	-6.0390626E-006	2.6386106E-006
2	0	0	1	1	4.290412891615051E+002	-3.8147706E-001	-3.8174015E-001	-7.045449639250950E-003	2.000000000000000E+000	-6.0629586E-006	2.6895311E-006
2	0	0	1	1	4.290444891614243E+002	-3.8467583E-001	-3.8496664E-001	-7.102206150799872E-003	2.000000000000000E+000	-6.0856496E-006	2.7341125E-006
2	0	0	0	1	4.290478891613384E+002	-3.8807455E-001	-3.8835478E-001	-7.165557869181299E-003	2.000000000000000E+000	-6.1099786E-006	2.7827787E-006
2	0	0	1	1	4.290512891612525E+002	-3.9147320E-001	-3.9176211E-001	-7.233496774521560E-003	2.000000000000000E+000	-6.1345154E-006	2.8338100E-006
2	0	0	1	1	4.290544891611717E+002	-3.9471641E-001	-3.9499035E-001	-7.306663231793173E-003	2.000000000000000E+000	-6.1578407E-006	2.8860616E-006
2	0	0	0	1	4.290578891610858E+002	-3.9813733E-001	-3.9843717E-001	-7.371609064951663E-003	2.000000000000000E+000	-6.1828573E-006	2.9371231E-006
2	0	0	0	1	4.290610891610049E+002	-4.0133610E-001	-4.0162486E-001	-7.430978586853557E-003	2.000000000000000E+000	-6.2065883E-006	2.9844657E-006
2	0	0	1	1	4.290644891609190E+002	-4.0473482E-001	-4.0501699E-001	-7.497201339053100E-003	2.000000000000000E+000	-6.2320410E-006	3.0364938E-006
2	0	0	0	1	4.290678891608331E+002	-4.0813351E-001	-4.0840152E-001	-7.561798926932775E-003	2.000000000000000E+000	-6.2576933E-006	3.0882502E-006
2	0	0	0	1	4.290710891607523E+002	-4.1133231E-001	-4.1160381E-001	-7.630297601887520E-003	2.000000000000000E+000	-6.2820527E-006	3.1406596E-006
2	0	0	1	1	4.290744891606664E+002	-4.1473100E-001	-4.1501588E-001	-7.708845432292333E-003	2.000000000000000E+000	-6.3082070E-006	3.1992931E-006
2	0	0	0	1	4.290778891605805E+002	-4.1812971E-001	-4.1841304E-001	-7.786085739644462E-003	2.000000000000000E+000	-6.3346060E-006	3.2577998E-006
2	0	0	0	1	4.290810891604997E+002	-4.2132849E-001	-4.2159760E-001	-7.845126127115989E-003	2.000000000000000E+000	-6.3596676E-006	3.3074864E-006
2	0	0	1	1	4.290844891604138E+002	-4.2472720E-001	-4.2500263E-001	-7.929161077724199E-003	2.000000000000000E+000	-6.3865541E-006	3.3699143E-006
2	0	0	0	1	4.290878891603279E+002	-4.2812592E-001	-4.2839465E-001	-8.004935424044853E-003	2.000000000000000E+000	-6.4136957E-006	3.4292714E-006
2	0	0	0	1	4.290910891602471E+002	-4.3132469E-001	-4.3158367E-001	-8.074285710851364E-003	2.000000000000000E+000	-6.4394767E-006	3.4847299E-006
2	0	0	1	1	4.290944891601612E+002	-4.3472344E-001	-4.3499497E-001	-8.162066350935967E-003	2.000000000000000E+000	-6.4671572E-006	3.5504577E-006
2	0	0	0	1	4.290978891600753E+002	-4.3812209E-001	-4.3838164E-001	-8.242532897141552E-003	2.000000000000000E+000	-6.4951032E-006	3.6133752E-006
2	0	0	0	1	4.291010891599944E+002	-4.4132090E-001	-4.4159323E-001	-8.311410403924410E-003	2.000000000000000E+000	-6.5216391E-006	3.6702625E-006
2	0	0	1	1	4.291044891599086E+002	-4.4471955E-001	-4.4498843E-001	-8.394026473251881E-003	2.000000000000000E+000	-6.5501140E-006	3.7352447E-006
2	0	0	0	1	4.291078891598227E+002	-4.4811827E-001	-4.4837418E-001	-8.464964914249626E-003	2.000000000000000E+000	-6.5788349E-006	3.7954717E-006
2	0	0	0	1	4.291110891597418E+002	-4.5131704E-001	-4.5157763E-001	-8.559325789368182E-003	2.000000000000000E+000	-6.6061307E-006	3.8652001E-006
2	0	0	1	1	4.291144891596559E+002	-4.5471576E-001	-4.5494995E-001	-8.637862987598041E-003	2.000000000000000E+000	-6.6354414E-006	3.9297952E-006
2	0	0	0	1	4.291178891595700E+002	-4.5811448E-001	-4.5839274E-001	-8.735324156562710E-003	2.000000000000000E+000	-6.6650368E-006	4.0042091E-006
2	0	0	0	1	4.291210891594892E+002	-4.6131328E-001	-4.6157119E-001	-8.821861149165999E-003	2.000000000000000E+000	-6.6931848E-006	4.0719169E-006
2	0	0	1	1	4.291244891594033E+002	-4.6471199E-001	-4.6495649E-001	-8.903777989629186E-003	2.000000000000000E+000	-6.7233932E-006	4.1398694E-006
2	0	0	0	1	4.291278891593174E+002	-4.6811068E-001	-4.6839264E-001	-9.011179102344592E-003	2.000000000000000E+000	-6.7539104E-006	4.2207698E-006
2	0	0	0	1	4.291310891592366E+002	-4.7130948E-001	-4.7159684E-001	-9.085790972252067E-003	2.000000000000000E+000	-6.7829178E-006	4.2848301E-006
2	0	0	1	1	4.291344891591507E+002	-4.7470814E-001	-4.7497955E-001	-9.173403325560978E-003	2.000000000000000E+000	-6.8140403E-006	4.3571790E-006
2	0	0	0	1	4.291378891590648E+002	-4.7810683E-001	-4.7838745E-001	-9.272014519471336E-003	2.000000000000000E+000	-6.8454592E-006	4.4356152E-006
2	0	0	0	1	4.291410891589840E+002	-4.8130560E-001	-4.8160660E-001	-9.360653266048742E-003	2.000000000000000E+000	-6.8753220E-006	4.5081524E-006
2	0	0	1	1	4.291444891588981E+002	-4.8470432E-001	-4.8497912E-001	-9.445522222025243E-003	2.000000000000000E+000	-6.9073744E-006	4.5808811E-006
2	0	0	0	1	4.291478891588122E+002	-4.8810306E-001	-4.8838058E-001	-9.552056035560461E-003	2.000000000000000E+000	-6.9397329E-006	4.6650389E-006
2	0	0	0	1	4.291510891587313E+002	-4.9130183E-001	-4.9157545E-001	-9.638630730235770E-003	2.000000000000000E+000	-6.9704920E-006	4.7381141E-006
2	0	0	1	1	4.291544891586454E+002	-4.9470058E-001	-4.9497730E-001	-9.732756843125891E-003	2.000000000000000E+000	-7.0035053E-006	4.8174938E-006
2	0	0	0	1	4.291578891585596E+002	-4.9809930E-001	-4.9837863E-001	-9.835496534772869E-003	2.000000000000000E+000	-7.0368319E-006	4.9018013E-006
2	0	0	0	1	4.291610891584787E+002	-5.0129807E-001	-5.0158399E-001	-9.925324628663162E-003	2.000000000000000E+000	-7.0685046E-006	4.9783839E-006
2	0	0	1	1	4.291644891583928E+002	-5.0469673E-001	-5.0496596E-001	-1.003956693020881E-002	2.000000000000000E+000	-7.1025265E-006	5.0696394E-006
2	0	0	0	1	4.291678891583069E+002	-5.0809544E-001	-5.0837916E-001	-1.013732429079634E-002	2.000000000000000E+000	-7.1368959E-006	5.1536044E-006
2	0	0	0	1	4.291710891582261E+002	-5.1129419E-001	-5.1158607E-001	-1.023518067195256E-002	2.000000000000000E+000	-7.1695517E-006	5.2361756E-006
2	0	0	1	1	4.292044891573823E+002	-5.4468143E-001	-5.4489952E-001	-1.132630054999023E-002	2.000000000000000E+000	-7.5150720E-006	6.1716960E-006
2	0	0	0	1	4.292078891572964E+002	-5.4808015E-001	-5.4831076E-001	-1.144061946833974E-002	2.000000000000000E+000	-7.5539124E-006	6.2730146E-006
2	0	0	0	1	4.292110891572156E+002	-5.5127901E-001	-5.5148834E-001	-1.155343669027692E-002	2.000000000000000E+000	-7.5908465E-006	6.3715856E-006
2	0	0	1	1	4.292144891571297E+002	-5.5467767E-001	-5.5492610E-001	-1.168624031282280E-002	2.000000000000000E+000	-7.6305168E-006	6.4849996E-006
2	0	0	0	1	4.292178891570438E+002	-5.5807638E-001	-5.5831802E-001	-1.180250361903742E-002	2.000000000000000E+000	-7.6705956E-006	6.5895506E-006
2	0	0	0	1	4.292210891569630E+002	-5.6127512E-001	-5.6149673E-001	-1.192030511047044E-002	2.000000000000000E+000	-7.7087016E-006	6.6932125E-006
2	0	0	1	1	4.292244891568771E+002	-5.6467384E-001	-5.6492531E-001	-1.206402922883473E-002	2.000000000000000E+000	-7.7496388E-006	6.8152754E-006
2	0	0	0	1	4.292277891567937E+002	-5.6798214E-001	-5.6821775E-001	-1.219029581664338E-002	2.000000000000000E+000	-7.7897921E-006	6.9267426E-006
2	0	0	0	1	4.292310891567104E+002	-5.7133800E-001	-5.7158470E-001	-1.235819034385106E-002	2.000000000000000E+000	-7.8304856E-006	7.0637525E-006
2	0	0	1	1	4.292344891566245E+002	-5.7473671E-001	-5.7497185E-001	-1.246369838093718E-002	2.000000000000000E+000	-7.8728372E-006	7.1662757E-006
2	0	0	1	1	4.292376891565436E+002	-5.7793552E-001	-5.7816046E-001	-1.260261691956354E-002	2.000000000000000E+000	-7.9130905E-006	7.2863349E-006
2	0	0	0	1	4.292410891564577E+002	-5.8133417E-001	-5.8154863E-001	-1.272775374867102E-002	2.000000000000000E+000	-7.9563251E-006	7.4018076E-006
2	0	0	1	1	4.292444891563719E+002	-5.8473283E-001	-5.8496428E-001	-1.289855734648879E-002	2.000000000000000E+000	-8.0000418E-006	7.5451953E-006
2	0	0	1	1	4.292476891562910E+002	-5.8793163E-001	-5.8816469E-001	-1.302679640915207E-002	2.000000000000000E+000	-8.0416648E-006	7.6619017E-006
2	0	0	0	1	4.292510891562051E+002	-5.9133029E-001	-5.9155893E-001	-1.317595014819137E-002	2.000000000000000E+000	-8.0863792E-006	7.7943514E-006
2	0	0	1	1	4.292544891561192E+002	-5.9472901E-001	-5.9497088E-001	-1.333644169329394E-002	2.000000000000000E+000	-8.1315939E-006	7.9347947E-006
2	0	0	1	1	4.292576891560384E+002	-5.9792781E-001	-5.9813893E-001	-1.348825244082637E-002	2.000000000000000E+000	-8.1746703E-006	8.0678492E-006
2	0	0	0	1	4.292595891559904E+002	-5.9982693E-001	-6.0007703E-001	-1.358072832226753E-002	2.000000000000000E+000	-8.2004362E-006	8.1494827E-006