EC-Lab ASCII FILE
Nb header lines : 53                          

Cyclic Voltammetry

Run on channel : 1 (SN 0696)
User : 
Electrode connection : standard
Ewe ctrl range : min = -10.00 V, max = 10.00 V
Ewe,I filtering : 50 kHz
Channel : Grounded
Acquisition started on : 05/17/2017 12:14:48
Saved on :
	File : 100 uM MB 10mM PB Second ITO_03_CV_C01.mpr
	Directory : \\userfs\st659\w2k\EC-Lab\Data\ITO Characterisation 17-5-17\
	Host : 144.32.136.43
Device : SP-300 (SN 0182)
Address : USB
EC-Lab for windows v10.44 (software)
Internet server v10.44 (firmware)
Command interpretor v10.44 (firmware)
Electrode material : 
Initial state : 
Electrolyte : 
Comments : 
Cable : standard
Electrode surface area : 0.001 cm²
Characteristic mass : 0.001 g
Equivalent Weight : 0.000 g/eq.
Density : 0.000 g/cm3
Ei (V)              0.000               
vs.                 Eoc                 
dE/dt               100.000             
dE/dt unit          mV/s                
E1 (V)              0.100               
vs.                 Ref                 
Step percent        50                  
N                   10                  
E range min (V)     -10.000             
E range max (V)     10.000              
I Range             Auto                
I Range min         Unset               
I Range max         Unset               
I Range init        Unset               
Bandwidth           8                   
E2 (V)              -0.600              
vs.                 Ref                 
nc cycles           2                   
Reverse Scan        1                   
Ef (V)              0.000               
vs.                 Eoc                 

mode	ox/red	error	control changes	counter inc.	time/s	control/V	Ewe/V	<I>/mA	cycle number	(Q-Qo)/C	P/W
2	1	0	1	1	3.498923911609745E+002	-6.0016018E-001	-6.0036314E-001	-5.668178200721741E-003	2.000000000000000E+000	-2.3757624E-005	3.4029651E-006
2	1	0	0	1	3.499107911605097E+002	-5.9832770E-001	-5.9852886E-001	-5.188838937567712E-003	2.000000000000000E+000	-2.3853070E-005	3.1056700E-006
2	1	0	1	1	3.499441911596659E+002	-5.9498900E-001	-5.9520978E-001	-4.956593438012857E-003	2.000000000000000E+000	-2.4020481E-005	2.9502128E-006
2	1	0	1	1	3.499773911588272E+002	-5.9167027E-001	-5.9190065E-001	-4.793327846752980E-003	2.000000000000000E+000	-2.4180503E-005	2.8371740E-006
2	1	0	0	1	3.500107911579835E+002	-5.8832932E-001	-5.8855766E-001	-4.647979792002654E-003	2.000000000000000E+000	-2.4336394E-005	2.7356041E-006
2	1	0	0	1	3.500439911571448E+002	-5.8500612E-001	-5.8522922E-001	-4.519511256146025E-003	2.000000000000000E+000	-2.4486810E-005	2.6449500E-006
2	1	0	1	1	3.500773911563010E+002	-5.8166736E-001	-5.8187634E-001	-4.403823009100350E-003	2.000000000000000E+000	-2.4634064E-005	2.5624804E-006
2	1	0	0	1	3.501107911554573E+002	-5.7832867E-001	-5.7856470E-001	-4.296536395192591E-003	2.000000000000000E+000	-2.4777615E-005	2.4858243E-006
2	1	0	0	1	3.501439911546186E+002	-5.7500994E-001	-5.7524979E-001	-4.196255155106049E-003	2.000000000000000E+000	-2.4916866E-005	2.4138949E-006
2	1	0	1	1	3.501773911537748E+002	-5.7167125E-001	-5.7190359E-001	-4.102961053124292E-003	2.000000000000000E+000	-2.5053718E-005	2.3464981E-006
2	1	0	1	1	3.502105911529361E+002	-5.6834584E-001	-5.6857163E-001	-4.014980538179070E-003	2.000000000000000E+000	-2.5186688E-005	2.2828040E-006
2	1	0	0	1	3.502439911520923E+002	-5.6500709E-001	-5.6522721E-001	-3.927440318145292E-003	2.000000000000000E+000	-2.5317573E-005	2.2198960E-006
2	1	0	1	1	3.502773911512486E+002	-5.6166834E-001	-5.6189173E-001	-3.849539851976759E-003	2.000000000000000E+000	-2.5445708E-005	2.1630246E-006
2	1	0	1	1	3.503105911504099E+002	-5.5834961E-001	-5.5857176E-001	-3.773214004883164E-003	2.000000000000000E+000	-2.5570494E-005	2.1076107E-006
2	1	0	0	1	3.503439911495661E+002	-5.5501091E-001	-5.5524486E-001	-3.701018009289521E-003	2.000000000000000E+000	-2.5693578E-005	2.0549712E-006
2	1	0	0	1	3.503771911487274E+002	-5.5168551E-001	-5.5189514E-001	-3.629143917900778E-003	2.000000000000000E+000	-2.5813546E-005	2.0029070E-006
2	1	0	1	1	3.504105911478837E+002	-5.4834676E-001	-5.4855973E-001	-3.564966226075307E-003	2.000000000000000E+000	-2.5931970E-005	1.9555969E-006
2	1	0	0	1	3.504439911470399E+002	-5.4500806E-001	-5.4521024E-001	-3.502533377091090E-003	2.000000000000000E+000	-2.6048278E-005	1.9096171E-006
2	1	0	0	1	3.504771911462012E+002	-5.4168934E-001	-5.4189259E-001	-3.439803424736484E-003	2.000000000000000E+000	-2.6161782E-005	1.8640039E-006
2	1	0	1	1	3.505105911453575E+002	-5.3835058E-001	-5.3854954E-001	-3.380101459727124E-003	2.000000000000000E+000	-2.6273980E-005	1.8203521E-006
2	1	0	0	1	3.505438911445162E+002	-5.3501630E-001	-5.3522241E-001	-3.324853619138902E-003	2.000000000000000E+000	-2.6383930E-005	1.7795362E-006
2	1	0	0	1	3.505771911436750E+002	-5.3168648E-001	-5.3189230E-001	-3.269660851569989E-003	2.000000000000000E+000	-2.6492029E-005	1.7391075E-006
2	1	0	1	1	3.506105911428313E+002	-5.2834773E-001	-5.2855444E-001	-3.218726778340411E-003	2.000000000000000E+000	-2.6598693E-005	1.7012724E-006
2	1	0	1	1	3.506437911419926E+002	-5.2502894E-001	-5.2525383E-001	-3.167501546628988E-003	2.000000000000000E+000	-2.6703012E-005	1.6637423E-006
2	1	0	0	1	3.506771911411488E+002	-5.2169031E-001	-5.2191925E-001	-3.117165878664105E-003	2.000000000000000E+000	-2.6806267E-005	1.6269089E-006
2	1	0	1	1	3.507104911403076E+002	-5.1835817E-001	-5.1857799E-001	-3.069249046134342E-003	2.000000000000000E+000	-2.6907568E-005	1.5916451E-006
2	1	0	1	1	3.507437911394663E+002	-5.1502615E-001	-5.1523781E-001	-3.025232813136730E-003	2.000000000000000E+000	-2.7007303E-005	1.5587143E-006
2	1	0	0	1	3.507771911386226E+002	-5.1168740E-001	-5.1191616E-001	-2.978567566137319E-003	2.000000000000000E+000	-2.7105894E-005	1.5247768E-006
2	1	0	0	1	3.508103911377839E+002	-5.0836867E-001	-5.0861019E-001	-2.935504024795515E-003	2.000000000000000E+000	-2.7202370E-005	1.4930273E-006
2	1	0	1	1	3.508437911369401E+002	-5.0502992E-001	-5.0526381E-001	-2.892914618725484E-003	2.000000000000000E+000	-2.7297996E-005	1.4616851E-006
2	1	0	0	1	3.508770911360989E+002	-5.0170010E-001	-5.0193256E-001	-2.851760149401882E-003	2.000000000000000E+000	-2.7391941E-005	1.4313913E-006
2	1	0	0	1	3.509103911352577E+002	-4.9836579E-001	-4.9857989E-001	-2.810408420638719E-003	2.000000000000000E+000	-2.7484512E-005	1.4012131E-006
2	1	0	1	1	3.509437911344139E+002	-4.9502707E-001	-4.9522907E-001	-2.771797489867486E-003	2.000000000000000E+000	-2.7576049E-005	1.3726747E-006
2	1	0	1	1	3.509769911335752E+002	-4.9170834E-001	-4.9193442E-001	-2.734555091721831E-003	2.000000000000000E+000	-2.7665765E-005	1.3452218E-006
2	1	0	0	1	3.510103911327315E+002	-4.8836961E-001	-4.8859334E-001	-2.698330787264891E-003	2.000000000000000E+000	-2.7754777E-005	1.3183865E-006
2	1	0	1	1	3.510437911318877E+002	-4.8503092E-001	-4.8525932E-001	-2.661427497250440E-003	2.000000000000000E+000	-2.7842594E-005	1.2914825E-006
2	1	0	1	1	3.510769911310490E+002	-4.8170549E-001	-4.8193085E-001	-2.624436184355365E-003	2.000000000000000E+000	-2.7928638E-005	1.2647968E-006
2	1	0	0	1	3.511103911302052E+002	-4.7836679E-001	-4.7859398E-001	-2.589804691055589E-003	2.000000000000000E+000	-2.8014032E-005	1.2394650E-006
2	1	0	0	1	3.511435911293665E+002	-4.7504804E-001	-4.7526547E-001	-2.554840462053783E-003	2.000000000000000E+000	-2.8097740E-005	1.2142275E-006
2	1	0	1	1	3.511769911285228E+002	-4.7170931E-001	-4.7194791E-001	-2.522777604430718E-003	2.000000000000000E+000	-2.8180846E-005	1.1906196E-006
2	1	0	0	1	3.512103911276790E+002	-4.6837056E-001	-4.6857432E-001	-2.489254478735985E-003	2.000000000000000E+000	-2.8262859E-005	1.1664007E-006
2	1	0	0	1	3.512435911268403E+002	-4.6504742E-001	-4.6524179E-001	-2.454536541998918E-003	2.000000000000000E+000	-2.8343247E-005	1.1419530E-006
2	1	0	1	1	3.512769911259966E+002	-4.6170646E-001	-4.6191612E-001	-2.426406711542616E-003	2.000000000000000E+000	-2.8423099E-005	1.1207964E-006
2	1	0	1	1	3.513101911251579E+002	-4.5838773E-001	-4.5858318E-001	-2.395846201389860E-003	2.000000000000000E+000	-2.8501470E-005	1.0986947E-006
2	1	0	0	1	3.513435911243141E+002	-4.5504901E-001	-4.5524213E-001	-2.365193478962503E-003	2.000000000000000E+000	-2.8579276E-005	1.0767357E-006
2	1	0	1	1	3.513769911234704E+002	-4.5171028E-001	-4.5190421E-001	-2.335320112777303E-003	2.000000000000000E+000	-2.8656106E-005	1.0553409E-006
2	1	0	1	1	3.514101911226317E+002	-4.4838712E-001	-4.4856352E-001	-2.305446615932006E-003	2.000000000000000E+000	-2.8731478E-005	1.0341392E-006
2	1	0	0	1	3.514435911217879E+002	-4.4504613E-001	-4.4525743E-001	-2.279496453856056E-003	2.000000000000000E+000	-2.8806373E-005	1.0149628E-006
2	1	0	0	1	3.514767911209492E+002	-4.4172740E-001	-4.4192719E-001	-2.250352337101087E-003	2.000000000000000E+000	-2.8879866E-005	9.9449187E-007
2	1	0	1	1	3.515101911201054E+002	-4.3838865E-001	-4.3859261E-001	-2.222438570590586E-003	2.000000000000000E+000	-2.8952865E-005	9.7474515E-007
2	1	0	0	1	3.515435911192617E+002	-4.3504992E-001	-4.3526134E-001	-2.193478771261172E-003	2.000000000000000E+000	-2.9024945E-005	9.5473649E-007
2	1	0	0	1	3.515767911184230E+002	-4.3172899E-001	-4.3194598E-001	-2.167192216999222E-003	2.000000000000000E+000	-2.9095660E-005	9.3610998E-007
2	1	0	1	1	3.516101911175792E+002	-4.2838582E-001	-4.2859966E-001	-2.140467966116074E-003	2.000000000000000E+000	-2.9165916E-005	9.1740384E-007
2	1	0	1	1	3.516433911167405E+002	-4.2506710E-001	-4.2528912E-001	-2.115333567163771E-003	2.000000000000000E+000	-2.9234878E-005	8.9962833E-007
2	1	0	0	1	3.516767911158968E+002	-4.2172834E-001	-4.2194888E-001	-2.088625610011600E-003	2.000000000000000E+000	-2.9303394E-005	8.8129326E-007
2	1	0	1	1	3.517101911150530E+002	-4.1838965E-001	-4.1861525E-001	-2.064172857011463E-003	2.000000000000000E+000	-2.9371071E-005	8.6409426E-007
2	1	0	1	1	3.517433911142143E+002	-4.1507089E-001	-4.1530493E-001	-2.038427411766691E-003	2.000000000000000E+000	-2.9437479E-005	8.4656892E-007
2	1	0	0	1	3.517767911133706E+002	-4.1172546E-001	-4.1194150E-001	-2.012715170211662E-003	2.000000000000000E+000	-2.9503430E-005	8.2912089E-007
2	1	0	0	1	3.518099911125319E+002	-4.0840676E-001	-4.0861991E-001	-1.988638195681335E-003	2.000000000000000E+000	-2.9568175E-005	8.1259714E-007
2	1	0	1	1	3.518433911116881E+002	-4.0506804E-001	-4.0530074E-001	-1.964247146345403E-003	2.000000000000000E+000	-2.9632518E-005	7.9611084E-007
2	1	0	0	1	3.518767911108444E+002	-4.0172932E-001	-4.0195817E-001	-1.939777905378540E-003	2.000000000000000E+000	-2.9696050E-005	7.7970958E-007
2	1	0	0	1	3.519099911100056E+002	-3.9841056E-001	-3.9865771E-001	-1.916044403659287E-003	2.000000000000000E+000	-2.9758381E-005	7.6384589E-007
2	1	0	1	1	3.519433911091619E+002	-3.9506742E-001	-3.9530945E-001	-1.892792444093547E-003	2.000000000000000E+000	-2.9820301E-005	7.4823873E-007
2	1	0	1	1	3.519765911083232E+002	-3.9174646E-001	-3.9198932E-001	-1.867986572938723E-003	2.000000000000000E+000	-2.9881037E-005	7.3223077E-007
2	1	0	0	1	3.520099911074794E+002	-3.8840771E-001	-3.8864344E-001	-1.845640110755251E-003	2.000000000000000E+000	-2.9941368E-005	7.1729590E-007
2	1	0	1	1	3.520433911066357E+002	-3.8506895E-001	-3.8531318E-001	-1.821760855460451E-003	2.000000000000000E+000	-3.0000958E-005	7.0194847E-007
2	1	0	1	1	3.520765911057970E+002	-3.8175026E-001	-3.8199440E-001	-1.799090499448028E-003	2.000000000000000E+000	-3.0059380E-005	6.8724250E-007
2	1	0	0	1	3.521099911049532E+002	-3.7840933E-001	-3.7862468E-001	-1.777539923708965E-003	2.000000000000000E+000	-3.0117406E-005	6.7302051E-007
2	1	0	0	1	3.521431911041145E+002	-3.7508616E-001	-3.7528923E-001	-1.753747369161653E-003	2.000000000000000E+000	-3.0174346E-005	6.5816249E-007
2	1	0	1	1	3.521765911032708E+002	-3.7174740E-001	-3.7193975E-001	-1.731732250878446E-003	2.000000000000000E+000	-3.0230880E-005	6.4410006E-007
2	1	0	0	1	3.522099911024270E+002	-3.6840868E-001	-3.6860216E-001	-1.709597961752372E-003	2.000000000000000E+000	-3.0286670E-005	6.3016148E-007
2	1	0	0	1	3.522431911015883E+002	-3.6508992E-001	-3.6529806E-001	-1.688312726258081E-003	2.000000000000000E+000	-3.0341422E-005	6.1673740E-007
2	1	0	1	1	3.522765911007446E+002	-3.6174899E-001	-3.6197805E-001	-1.667739447323211E-003	2.000000000000000E+000	-3.0395788E-005	6.0368507E-007
2	1	0	1	1	3.523097910999059E+002	-3.5842580E-001	-3.5865307E-001	-1.644854592291439E-003	2.000000000000000E+000	-3.0449091E-005	5.8993214E-007
2	1	0	0	1	3.523431910990621E+002	-3.5508710E-001	-3.5530314E-001	-1.624221685013724E-003	2.000000000000000E+000	-3.0501998E-005	5.7709104E-007
2	1	0	1	1	3.523765910982183E+002	-3.5174835E-001	-3.5196632E-001	-1.602594481209290E-003	2.000000000000000E+000	-3.0554191E-005	5.6405929E-007
2	1	0	1	1	3.524097910973796E+002	-3.4842965E-001	-3.4864396E-001	-1.580337508860755E-003	2.000000000000000E+000	-3.0605326E-005	5.5097513E-007
2	1	0	0	1	3.524431910965359E+002	-3.4509093E-001	-3.4532502E-001	-1.560451295970572E-003	2.000000000000000E+000	-3.0656087E-005	5.3886288E-007
2	1	0	0	1	3.524763910956972E+002	-3.4176549E-001	-3.4200057E-001	-1.537923168472372E-003	2.000000000000000E+000	-3.0705829E-005	5.2597062E-007
2	1	0	1	1	3.525097910948534E+002	-3.3842677E-001	-3.3863071E-001	-1.514980541663435E-003	2.000000000000000E+000	-3.0755131E-005	5.1301890E-007
2	1	0	0	1	3.525431910940097E+002	-3.3508804E-001	-3.3527398E-001	-1.494664563403976E-003	2.000000000000000E+000	-3.0803702E-005	5.0112214E-007
2	1	0	0	1	3.525763910931710E+002	-3.3176932E-001	-3.3194348E-001	-1.473178873776407E-003	2.000000000000000E+000	-3.0851290E-005	4.8901211E-007
2	1	0	1	1	3.526097910923272E+002	-3.2843056E-001	-3.2860166E-001	-1.452473808043305E-003	2.000000000000000E+000	-3.0898460E-005	4.7728531E-007
2	1	0	0	1	3.526430910914860E+002	-3.2509631E-001	-3.2526079E-001	-1.430050274335935E-003	2.000000000000000E+000	-3.0944782E-005	4.6513927E-007
2	1	0	0	1	3.526763910906448E+002	-3.2176647E-001	-3.2195529E-001	-1.409172578488428E-003	2.000000000000000E+000	-3.0990381E-005	4.5369057E-007
2	1	0	1	1	3.527097910898010E+002	-3.1842777E-001	-3.1861845E-001	-1.387837351929326E-003	2.000000000000000E+000	-3.1035441E-005	4.4219058E-007
2	1	0	1	1	3.527429910889623E+002	-3.1510898E-001	-3.1530669E-001	-1.366229487870846E-003	2.000000000000000E+000	-3.1079497E-005	4.3078131E-007
2	1	0	0	1	3.527763910881185E+002	-3.1177026E-001	-3.1196231E-001	-1.343856410301800E-003	2.000000000000000E+000	-3.1123098E-005	4.1923255E-007
2	1	0	1	1	3.528096910872773E+002	-3.0843818E-001	-3.0863735E-001	-1.321857806133597E-003	2.000000000000000E+000	-3.1165808E-005	4.0797468E-007
2	1	0	1	1	3.528429910864361E+002	-3.0510613E-001	-3.0528310E-001	-1.299150767275326E-003	2.000000000000000E+000	-3.1207746E-005	3.9660878E-007
2	1	0	0	1	3.528763910855923E+002	-3.0176744E-001	-3.0197108E-001	-1.277361534645291E-003	2.000000000000000E+000	-3.1249092E-005	3.8572625E-007
2	1	0	0	1	3.529095910847536E+002	-2.9844871E-001	-2.9863495E-001	-1.252855209351297E-003	2.000000000000000E+000	-3.1289408E-005	3.7414634E-007
2	1	0	1	1	3.529429910839099E+002	-2.9510999E-001	-2.9528221E-001	-1.227995749615261E-003	2.000000000000000E+000	-3.1329138E-005	3.6260531E-007
2	1	0	0	1	3.529762910830686E+002	-2.9178011E-001	-2.9195595E-001	-1.205260950425682E-003	2.000000000000000E+000	-3.1367974E-005	3.5188310E-007
2	1	0	0	1	3.530095910822274E+002	-2.8844583E-001	-2.8862426E-001	-1.178837288445918E-003	2.000000000000000E+000	-3.1405991E-005	3.4024103E-007
2	1	0	1	1	3.530429910813837E+002	-2.8510708E-001	-2.8525329E-001	-1.153855272036545E-003	2.000000000000000E+000	-3.1443287E-005	3.2914102E-007
2	1	0	1	1	3.530761910805450E+002	-2.8178835E-001	-2.8193679E-001	-1.127737886063525E-003	2.000000000000000E+000	-3.1479482E-005	3.1795079E-007
2	1	0	0	1	3.531095910797012E+002	-2.7844965E-001	-2.7861500E-001	-1.101214586382817E-003	2.000000000000000E+000	-3.1515014E-005	3.0681491E-007
2	1	0	1	1	3.531429910788574E+002	-2.7511093E-001	-2.7529588E-001	-1.072265384045073E-003	2.000000000000000E+000	-3.1549629E-005	2.9519023E-007
2	1	0	1	1	3.531761910780187E+002	-2.7178550E-001	-2.7195749E-001	-1.041817524827723E-003	2.000000000000000E+000	-3.1583073E-005	2.8333008E-007
2	1	0	0	1	3.532095910771750E+002	-2.6844677E-001	-2.6863480E-001	-1.011245975751078E-003	2.000000000000000E+000	-3.1615698E-005	2.7165586E-007
2	1	0	0	1	3.532427910763363E+002	-2.6512805E-001	-2.6530758E-001	-9.786114088745775E-004	2.000000000000000E+000	-3.1647054E-005	2.5963303E-007
2	1	0	1	1	3.532761910754925E+002	-2.6178932E-001	-2.6194382E-001	-9.450429263934282E-004	2.000000000000000E+000	-3.1677497E-005	2.4754814E-007
2	1	0	0	1	3.533095910746488E+002	-2.5845060E-001	-2.5863126E-001	-9.103550736580066E-004	2.000000000000000E+000	-3.1706815E-005	2.3544628E-007
2	1	0	0	1	3.533427910738101E+002	-2.5512519E-001	-2.5530621E-001	-8.727166266247893E-004	2.000000000000000E+000	-3.1734729E-005	2.2280997E-007
2	1	0	1	1	3.533761910729663E+002	-2.5178650E-001	-2.5197336E-001	-8.313915393025825E-004	2.000000000000000E+000	-3.1761519E-005	2.0948852E-007
2	1	0	1	1	3.534093910721276E+002	-2.4846774E-001	-2.4865292E-001	-7.902149418926793E-004	2.000000000000000E+000	-3.1786756E-005	1.9648925E-007
2	1	0	0	1	3.534427910712839E+002	-2.4512900E-001	-2.4530762E-001	-7.441910301592240E-004	2.000000000000000E+000	-3.1810694E-005	1.8255574E-007
2	1	0	1	1	3.534761910704401E+002	-2.4179025E-001	-2.4197005E-001	-6.943355461717822E-004	2.000000000000000E+000	-3.1833017E-005	1.6800840E-007
2	1	0	1	1	3.535093910696014E+002	-2.3846711E-001	-2.3863368E-001	-6.441827730048755E-004	2.000000000000000E+000	-3.1853546E-005	1.5372370E-007
2	1	0	0	1	3.535427910687577E+002	-2.3512617E-001	-2.3529719E-001	-5.881124053700700E-004	2.000000000000000E+000	-3.1872445E-005	1.3838120E-007
2	1	0	0	1	3.535759910679189E+002	-2.3180744E-001	-2.3200144E-001	-5.307761503233156E-004	2.000000000000000E+000	-3.1889351E-005	1.2314084E-007
2	1	0	1	1	3.536260910666533E+002	-2.2680157E-001	-2.2698195E-001	-4.129886239572084E-004	2.000000000000000E+000	-3.1911131E-005	9.3740965E-008
2	1	0	0	1	3.536759910653927E+002	-2.2180901E-001	-2.2195816E-001	-2.847821908471809E-004	2.000000000000000E+000	-3.1929270E-005	6.3209733E-008
2	1	0	1	1	3.537093910645490E+002	-2.1846582E-001	-2.1859260E-001	-2.045086779479018E-004	2.000000000000000E+000	-3.1937016E-005	4.4704084E-008
2	1	0	1	1	3.537425910637103E+002	-2.1514711E-001	-2.1528089E-001	-1.198169399071118E-004	2.000000000000000E+000	-3.1941974E-005	2.5794298E-008
2	1	0	0	1	3.537759910628665E+002	-2.1180837E-001	-2.1192782E-001	-2.519495750840311E-005	2.000000000000000E+000	-3.1943928E-005	5.3395124E-009
2	1	0	1	1	3.538093910620228E+002	-2.0846966E-001	-2.0857163E-001	7.567142743398461E-005	2.000000000000000E+000	-3.1942618E-005	1.5782913E-008
2	1	0	1	1	3.538425910611841E+002	-2.0515093E-001	-2.0524500E-001	1.830938493345407E-004	2.000000000000000E+000	-3.1937871E-005	3.7579099E-008
2	1	0	0	1	3.538759910603403E+002	-2.0180552E-001	-2.0190725E-001	2.988433165585416E-004	2.000000000000000E+000	-3.1929347E-005	6.0338628E-008
2	1	0	0	1	3.539091910595016E+002	-1.9848679E-001	-1.9857608E-001	4.212818846739269E-004	2.000000000000000E+000	-3.1916934E-005	8.3656502E-008
2	1	0	1	1	3.539425910586579E+002	-1.9514807E-001	-1.9523863E-001	5.471171485152328E-004	2.000000000000000E+000	-3.1900276E-005	1.0681840E-007
2	1	0	0	1	3.539759910578141E+002	-1.9180933E-001	-1.9190505E-001	6.813792522114941E-004	2.000000000000000E+000	-3.1879288E-005	1.3076011E-007
2	1	0	0	1	3.540091910569754E+002	-1.8849060E-001	-1.8858661E-001	8.189919466760169E-004	2.000000000000000E+000	-3.1853924E-005	1.5445092E-007
2	1	0	1	1	3.540591910557123E+002	-1.8348899E-001	-1.8362248E-001	1.016229465108633E-003	2.000000000000000E+000	-3.1805856E-005	1.8660258E-007
2	1	0	0	1	3.541091910544492E+002	-1.7848776E-001	-1.7866364E-001	1.206119914952279E-003	2.000000000000000E+000	-3.1750460E-005	2.1548978E-007
2	1	0	1	1	3.541425910536054E+002	-1.7514902E-001	-1.7531395E-001	1.337426932115230E-003	2.000000000000000E+000	-3.1706244E-005	2.3446960E-007
2	1	0	1	1	3.541757910527667E+002	-1.7183030E-001	-1.7198716E-001	1.463722239921618E-003	2.000000000000000E+000	-3.1658023E-005	2.5174143E-007
2	1	0	0	1	3.542091910519230E+002	-1.6848932E-001	-1.6864376E-001	1.575665723832102E-003	2.000000000000000E+000	-3.1605548E-005	2.6572619E-007
2	1	0	0	1	3.542423910510843E+002	-1.6516615E-001	-1.6530542E-001	1.678571504254017E-003	2.000000000000000E+000	-3.1549866E-005	2.7747697E-007
2	1	0	1	1	3.542757910502405E+002	-1.6182743E-001	-1.6196907E-001	1.762574290852944E-003	2.000000000000000E+000	-3.1490737E-005	2.8548251E-007
2	1	0	0	1	3.543091910493968E+002	-1.5848871E-001	-1.5862203E-001	1.828113812664893E-003	2.000000000000000E+000	-3.1429085E-005	2.8997911E-007
2	1	0	0	1	3.543423910485581E+002	-1.5516996E-001	-1.5530360E-001	1.878703313982599E-003	2.000000000000000E+000	-3.1365871E-005	2.9176940E-007
2	1	0	1	1	3.543757910477143E+002	-1.5182902E-001	-1.5196927E-001	1.906870107564754E-003	2.000000000000000E+000	-3.1301006E-005	2.8978565E-007
2	1	0	1	1	3.544089910468756E+002	-1.4850585E-001	-1.4865059E-001	1.920029670954036E-003	2.000000000000000E+000	-3.1235846E-005	2.8541353E-007
2	1	0	0	1	3.544423910460318E+002	-1.4516711E-001	-1.4530338E-001	1.918845413577699E-003	2.000000000000000E+000	-3.1170111E-005	2.7881472E-007
2	1	0	1	1	3.544757910451881E+002	-1.4182839E-001	-1.4198734E-001	1.900786514692030E-003	2.000000000000000E+000	-3.1104679E-005	2.6988761E-007
2	1	0	1	1	3.545089910443494E+002	-1.3850965E-001	-1.3864625E-001	1.877750500492833E-003	2.000000000000000E+000	-3.1040337E-005	2.6034306E-007
2	1	0	0	1	3.545423910435056E+002	-1.3517094E-001	-1.3529362E-001	1.841525429195760E-003	2.000000000000000E+000	-3.0976636E-005	2.4914664E-007
2	1	0	0	1	3.545755910426669E+002	-1.3184553E-001	-1.3197358E-001	1.796663207542567E-003	2.000000000000000E+000	-3.0914671E-005	2.3711208E-007
2	1	0	1	1	3.546089910418232E+002	-1.2850679E-001	-1.2864095E-001	1.748416540501271E-003	2.000000000000000E+000	-3.0853906E-005	2.2491797E-007
2	1	0	0	1	3.546423910409794E+002	-1.2516807E-001	-1.2528232E-001	1.695799652074194E-003	2.000000000000000E+000	-3.0794821E-005	2.1245371E-007
2	1	0	0	1	3.546755910401407E+002	-1.2184933E-001	-1.2195887E-001	1.642192319090505E-003	2.000000000000000E+000	-3.0737814E-005	2.0027991E-007
2	1	0	1	1	3.547089910392970E+002	-1.1851061E-001	-1.1861616E-001	1.588115017468770E-003	2.000000000000000E+000	-3.0682309E-005	1.8837611E-007
2	1	0	0	1	3.547422910384557E+002	-1.1517631E-001	-1.1529326E-001	1.534870331075721E-003	2.000000000000000E+000	-3.0628722E-005	1.7696020E-007
2	1	0	0	1	3.547755910376145E+002	-1.1184648E-001	-1.1194374E-001	1.484538039140813E-003	2.000000000000000E+000	-3.0576863E-005	1.6618473E-007
2	1	0	1	1	3.548089910367707E+002	-1.0850776E-001	-1.0861520E-001	1.433256561679262E-003	2.000000000000000E+000	-3.0526553E-005	1.5567346E-007
2	1	0	1	1	3.548421910359320E+002	-1.0518902E-001	-1.0531281E-001	1.386566926467585E-003	2.000000000000000E+000	-3.0478161E-005	1.4602325E-007
2	1	0	0	1	3.548755910350883E+002	-1.0185029E-001	-1.0196623E-001	1.342083716048773E-003	2.000000000000000E+000	-3.0430989E-005	1.3684722E-007
2	1	0	1	1	3.549088910342471E+002	-9.8518223E-002	-9.8659083E-002	1.302805606861976E-003	2.000000000000000E+000	-3.0385361E-005	1.2853360E-007
2	1	0	1	1	3.549421910334058E+002	-9.5186159E-002	-9.5314309E-002	1.264393768627390E-003	2.000000000000000E+000	-3.0341000E-005	1.2051481E-007
2	1	0	0	1	3.549755910325621E+002	-9.1847442E-002	-9.1958545E-002	1.229585937722329E-003	2.000000000000000E+000	-3.0297746E-005	1.1307093E-007
2	1	0	0	1	3.550087910317234E+002	-8.8528700E-002	-8.8654950E-002	1.194396338195715E-003	2.000000000000000E+000	-3.0255902E-005	1.0588915E-007
2	1	0	1	1	3.550421910308796E+002	-8.5189983E-002	-8.5329995E-002	1.163388556675204E-003	2.000000000000000E+000	-3.0214915E-005	9.9271936E-008
2	1	0	0	1	3.550754910300384E+002	-8.1860155E-002	-8.1986591E-002	1.135967216179750E-003	2.000000000000000E+000	-3.0175041E-005	9.3134076E-008
2	1	0	0	1	3.551087910291972E+002	-7.8525856E-002	-7.8680418E-002	1.108512746422667E-003	2.000000000000000E+000	-3.0136061E-005	8.7218247E-008
2	1	0	1	1	3.551421910283534E+002	-7.5187117E-002	-7.5336322E-002	1.084942246755722E-003	2.000000000000000E+000	-3.0097810E-005	8.1735557E-008
2	1	0	1	1	3.551753910275147E+002	-7.1868390E-002	-7.2016120E-002	1.062147535408764E-003	2.000000000000000E+000	-3.0060552E-005	7.6491744E-008
2	1	0	0	1	3.552087910266710E+002	-6.8529665E-002	-6.8663962E-002	1.040953641475224E-003	2.000000000000000E+000	-3.0023793E-005	7.1476002E-008
2	1	0	1	1	3.552420910258297E+002	-6.5199830E-002	-6.5330811E-002	1.022144101104047E-003	2.000000000000000E+000	-2.9987836E-005	6.6777503E-008
2	1	0	1	1	3.552753910249885E+002	-6.1865535E-002	-6.2013939E-002	1.003842688124108E-003	2.000000000000000E+000	-2.9952484E-005	6.2252241E-008
2	1	0	0	1	3.553087910241447E+002	-5.8526807E-002	-5.8679089E-002	9.865558484819272E-004	2.000000000000000E+000	-2.9917637E-005	5.7890198E-008
2	1	0	0	1	3.553419910233060E+002	-5.5208072E-002	-5.5361081E-002	9.707005756569797E-004	2.000000000000000E+000	-2.9883497E-005	5.3739033E-008
2	1	0	1	1	3.553753910224623E+002	-5.1869340E-002	-5.2011084E-002	9.572701962517610E-004	2.000000000000000E+000	-2.9849625E-005	4.9788660E-008
2	1	0	0	1	3.554087910216185E+002	-4.8530616E-002	-4.8662432E-002	9.442829513540748E-004	2.000000000000000E+000	-2.9816243E-005	4.5951104E-008
2	1	0	0	1	3.554419910207798E+002	-4.5205213E-002	-4.5352910E-002	9.322222397140974E-004	2.000000000000000E+000	-2.9783463E-005	4.2278991E-008
2	1	0	1	1	3.554753910199361E+002	-4.1866485E-002	-4.2002168E-002	9.217894908107585E-004	2.000000000000000E+000	-2.9750887E-005	3.8717157E-008
2	1	0	1	1	3.555085910190974E+002	-3.8547754E-002	-3.8682558E-002	9.118748164109985E-004	2.000000000000000E+000	-2.9718836E-005	3.5273651E-008
2	1	0	0	1	3.555419910182536E+002	-3.5209026E-002	-3.5336439E-002	8.992335698914974E-004	2.000000000000000E+000	-2.9686962E-005	3.1775713E-008
2	1	0	1	1	3.555753910174099E+002	-3.1870302E-002	-3.1997740E-002	8.905605494038769E-004	2.000000000000000E+000	-2.9655432E-005	2.8495926E-008
2	1	0	1	1	3.556085910165712E+002	-2.8547123E-002	-2.8668359E-002	8.835088098621121E-004	2.000000000000000E+000	-2.9624343E-005	2.5328747E-008
2	1	0	0	1	3.556419910157274E+002	-2.5206177E-002	-2.5324097E-002	8.741788494754221E-004	2.000000000000000E+000	-2.9593375E-005	2.2137790E-008
2	1	0	0	1	3.556751910148887E+002	-2.1887442E-002	-2.2009786E-002	8.669494045453700E-004	2.000000000000000E+000	-2.9562849E-005	1.9081371E-008
2	1	0	1	1	3.557085910140449E+002	-1.8548712E-002	-1.8706391E-002	8.596374343364382E-004	2.000000000000000E+000	-2.9532383E-005	1.6080714E-008
2	1	0	0	1	3.557419910132012E+002	-1.5209983E-002	-1.5355923E-002	8.510483574664957E-004	2.000000000000000E+000	-2.9502155E-005	1.3068633E-008
2	1	0	0	1	3.557751910123625E+002	-1.1889027E-002	-1.2041396E-002	8.468670159439799E-004	2.000000000000000E+000	-2.9472296E-005	1.0197462E-008
2	1	0	1	1	3.558085910115187E+002	-8.5458588E-003	-8.7022232E-003	8.408023821391041E-004	2.000000000000000E+000	-2.9442448E-005	7.3168498E-009
2	1	0	1	1	3.558417910106800E+002	-5.2271229E-003	-5.3688358E-003	8.361647719316873E-004	2.000000000000000E+000	-2.9412946E-005	4.4892312E-009
2	1	0	0	1	3.558751910098363E+002	-1.8883953E-003	-2.0359452E-003	8.309930997172539E-004	2.000000000000000E+000	-2.9383460E-005	1.6918564E-009
2	1	0	1	1	3.559085910089925E+002	1.4562792E-003	1.3106551E-003	8.283512146617447E-004	2.000000000000000E+000	-2.9354100E-005	1.0856828E-009
2	1	0	1	1	3.559417910081538E+002	4.7690645E-003	4.6433406E-003	8.235840214345256E-004	2.000000000000000E+000	-2.9325023E-005	3.8241810E-009
2	1	0	0	1	3.559751910073101E+002	8.1144553E-003	7.9935659E-003	8.201322916230099E-004	2.000000000000000E+000	-2.9295954E-005	6.5557817E-009
2	1	0	0	1	3.560083910064714E+002	1.1433187E-002	1.1315325E-002	8.156882676121323E-004	2.000000000000000E+000	-2.9267152E-005	9.2297778E-009
2	1	0	1	1	3.560417910056276E+002	1.4771915E-002	1.4685708E-002	8.129189343445535E-004	2.000000000000000E+000	-2.9238281E-005	1.1938290E-008
2	1	0	0	1	3.560751910047838E+002	1.8110638E-002	1.8005894E-002	8.092021485585819E-004	2.000000000000000E+000	-2.9209532E-005	1.4570409E-008
2	1	0	0	1	3.561083910039451E+002	2.1429373E-002	2.1326803E-002	8.074887754278091E-004	2.000000000000000E+000	-2.9181061E-005	1.7221154E-008
2	1	0	1	1	3.561417910031014E+002	2.4772540E-002	2.4652863E-002	8.058379568508297E-004	2.000000000000000E+000	-2.9152476E-005	1.9866214E-008
2	1	0	1	1	3.561749910022627E+002	2.8093496E-002	2.7986960E-002	8.029006786967278E-004	2.000000000000000E+000	-2.9124141E-005	2.2470749E-008
2	1	0	0	1	3.562083910014189E+002	3.1432223E-002	3.1316794E-002	8.008186751329860E-004	2.000000000000000E+000	-2.9095714E-005	2.5079073E-008
2	1	0	1	1	3.562417910005752E+002	3.4770947E-002	3.4659084E-002	7.999314233273734E-004	2.000000000000000E+000	-2.9067356E-005	2.7724891E-008
2	1	0	1	1	3.562749909997365E+002	3.8089685E-002	3.7990622E-002	7.975149073576578E-004	2.000000000000000E+000	-2.9039196E-005	3.0298086E-008
2	1	0	0	1	3.563083909988927E+002	4.1432850E-002	4.1311786E-002	7.977577340716434E-004	2.000000000000000E+000	-2.9010920E-005	3.2956798E-008
2	1	0	0	1	3.563415909980540E+002	4.4753809E-002	4.4645377E-002	7.962818197672639E-004	2.000000000000000E+000	-2.8982822E-005	3.5550300E-008
2	1	0	1	1	3.563749909972103E+002	4.8092533E-002	4.8010573E-002	7.953654631422027E-004	2.000000000000000E+000	-2.8954602E-005	3.8185952E-008
2	1	0	0	1	3.564083909963665E+002	5.1431254E-002	5.1344950E-002	7.937419712093462E-004	2.000000000000000E+000	-2.8926430E-005	4.0754642E-008
2	1	0	0	1	3.564415909955278E+002	5.4749988E-002	5.4671798E-002	7.934712950170989E-004	2.000000000000000E+000	-2.8898432E-005	4.3380503E-008
2	1	0	1	1	3.564749909946840E+002	5.8090933E-002	5.8036596E-002	7.937500033855325E-004	2.000000000000000E+000	-2.8870274E-005	4.6066550E-008
2	1	0	1	1	3.565081909938453E+002	6.1414111E-002	6.1351914E-002	7.935727210901349E-004	2.000000000000000E+000	-2.8842302E-005	4.8687205E-008
2	1	0	0	1	3.565415909930016E+002	6.4752840E-002	6.4671040E-002	7.926102648747879E-004	2.000000000000000E+000	-2.8814191E-005	5.1258930E-008
2	1	0	1	1	3.565749909921578E+002	6.8091571E-002	6.8009868E-002	7.923226270159585E-004	2.000000000000000E+000	-2.8786111E-005	5.3885756E-008
2	1	0	1	1	3.566081909913191E+002	7.1410298E-002	7.1307927E-002	7.916032588494784E-004	2.000000000000000E+000	-2.8758177E-005	5.6447586E-008
2	1	0	0	1	3.566415909904754E+002	7.4749023E-002	7.4663550E-002	7.927652976340359E-004	2.000000000000000E+000	-2.8730068E-005	5.9190672E-008
2	1	0	0	1	3.566747909896367E+002	7.8074418E-002	7.7997878E-002	7.944815948886354E-004	2.000000000000000E+000	-2.8702083E-005	6.1967881E-008
2	1	0	1	1	3.567081909887929E+002	8.1413150E-002	8.1323579E-002	7.925811722088840E-004	2.000000000000000E+000	-2.8673947E-005	6.4455534E-008
2	1	0	0	1	3.567415909879492E+002	8.4751882E-002	8.4641740E-002	7.936263158734181E-004	2.000000000000000E+000	-2.8645800E-005	6.7173914E-008
2	1	0	0	1	3.567747909871105E+002	8.8070609E-002	8.7979473E-002	7.941713362473526E-004	2.000000000000000E+000	-2.8617813E-005	6.9870772E-008
2	1	0	1	1	3.568081909862667E+002	9.1409341E-002	9.1319881E-002	7.958764281674694E-004	2.000000000000000E+000	-2.8589626E-005	7.2679342E-008
2	1	0	0	1	3.568414909854255E+002	9.4743624E-002	9.4638899E-002	7.966914950744801E-004	2.000000000000000E+000	-2.8561481E-005	7.5398006E-008
2	1	0	0	1	3.568747909845843E+002	9.8073460E-002	9.7984836E-002	7.977498905017482E-004	2.000000000000000E+000	-2.8533286E-005	7.8167389E-008
2	0	0	1	1	3.568935909841093E+002	9.9906117E-002	9.9787883E-002	7.901399671523396E-004	2.000000000000000E+000	-2.8517406E-005	7.8846398E-008
2	0	0	0	1	3.569119909836445E+002	9.8066792E-002	9.7967997E-002	5.856760604654957E-004	2.000000000000000E+000	-2.8507233E-005	5.7377509E-008
2	0	0	0	1	3.569451909828058E+002	9.4745837E-002	9.4644882E-002	4.942953670480921E-004	2.000000000000000E+000	-2.8491053E-005	4.6782528E-008
2	0	0	1	1	3.569785909819620E+002	9.1402672E-002	9.1289222E-002	4.331430695997873E-004	2.000000000000000E+000	-2.8477256E-005	3.9541295E-008
2	0	0	1	1	3.570117909811233E+002	8.8083930E-002	8.7974623E-002	3.792329979714166E-004	2.000000000000000E+000	-2.8465462E-005	3.3362880E-008
2	0	0	0	1	3.570451909802796E+002	8.4745206E-002	8.4631346E-002	3.324362227121345E-004	2.000000000000000E+000	-2.8455243E-005	2.8134526E-008
2	0	0	1	1	3.570951909790165E+002	7.9749234E-002	7.9642929E-002	2.539723508496123E-004	2.000000000000000E+000	-2.8444094E-005	2.0227102E-008
2	0	0	0	1	3.571451909777534E+002	7.4742354E-002	7.4589022E-002	1.716875161717462E-004	2.000000000000000E+000	-2.8435119E-005	1.2806004E-008
2	0	0	0	1	3.571783909769147E+002	7.1423627E-002	7.1270682E-002	1.355636721400845E-004	2.000000000000000E+000	-2.8430468E-005	9.6617150E-009
2	0	0	1	1	3.572117909760709E+002	6.8084896E-002	6.7925811E-002	1.007269741091511E-004	2.000000000000000E+000	-2.8426979E-005	6.8419612E-009
2	0	0	0	1	3.572451909752272E+002	6.4746179E-002	6.4616323E-002	6.824072934174803E-005	2.000000000000000E+000	-2.8424611E-005	4.4094648E-009
2	0	0	0	1	3.572783909743885E+002	6.1427440E-002	6.1285663E-002	3.513110697492928E-005	2.000000000000000E+000	-2.8423347E-005	2.1530333E-009
2	0	0	1	1	3.573117909735447E+002	5.8084272E-002	5.7958294E-002	4.039874274550074E-006	2.000000000000000E+000	-2.8423150E-005	2.3414423E-010
2	0	0	1	1	3.573449909727060E+002	5.4763317E-002	5.4617491E-002	-2.740387131718969E-005	2.000000000000000E+000	-2.8423992E-005	1.4967307E-009
2	0	0	0	1	3.573783909718622E+002	5.1424593E-002	5.1279794E-002	-5.615744384461626E-005	2.000000000000000E+000	-2.8425849E-005	2.8797422E-009
2	0	0	1	1	3.574117909710185E+002	4.8085868E-002	4.7915723E-002	-8.425784120912809E-005	2.000000000000000E+000	-2.8428649E-005	4.0372754E-009
2	0	0	1	1	3.574449909701798E+002	4.4767134E-002	4.4603042E-002	-1.139181775429450E-004	2.000000000000000E+000	-2.8432391E-005	5.0810973E-009
2	0	0	0	1	3.574783909693360E+002	4.1426186E-002	4.1231640E-002	-1.407321043124850E-004	2.000000000000000E+000	-2.8437091E-005	5.8026153E-009
2	0	0	0	1	3.575115909684973E+002	3.8103011E-002	3.7910018E-002	-1.661629925018603E-004	2.000000000000000E+000	-2.8442637E-005	6.2992420E-009
2	0	0	1	1	3.575449909676536E+002	3.4764286E-002	3.4579940E-002	-1.936083295640854E-004	2.000000000000000E+000	-2.8449107E-005	6.6949646E-009
2	0	0	0	1	3.575783909668098E+002	3.1425554E-002	3.1234626E-002	-2.189372406300443E-004	2.000000000000000E+000	-2.8456423E-005	6.8384227E-009
2	0	0	0	1	3.576115909659711E+002	2.8106825E-002	2.7917773E-002	-2.432979528142215E-004	2.000000000000000E+000	-2.8464536E-005	6.7923369E-009
2	0	0	1	1	3.576449909651274E+002	2.4765879E-002	2.4584236E-002	-2.691642324009957E-004	2.000000000000000E+000	-2.8473538E-005	6.6171970E-009
2	0	0	1	1	3.576781909642887E+002	2.1442700E-002	2.1273410E-002	-2.916900817527433E-004	2.000000000000000E+000	-2.8483293E-005	6.2052425E-009
2	0	0	0	1	3.577115909634449E+002	1.8103974E-002	1.7925577E-002	-3.159761114801323E-004	2.000000000000000E+000	-2.8493872E-005	5.6640541E-009
2	0	0	1	1	3.577449909626012E+002	1.4765250E-002	1.4592575E-002	-3.401468910090417E-004	2.000000000000000E+000	-2.8505254E-005	4.9636188E-009
2	0	0	1	1	3.577781909617624E+002	1.1446516E-002	1.1260982E-002	-3.629865359700349E-004	2.000000000000000E+000	-2.8517366E-005	4.0875849E-009
2	0	0	0	1	3.578115909609187E+002	8.1077907E-003	7.9119029E-003	-3.857914630403959E-004	2.000000000000000E+000	-2.8530319E-005	3.0523446E-009
2	0	0	0	1	3.578447909600800E+002	4.7823931E-003	4.5884876E-003	-4.075370495303550E-004	2.000000000000000E+000	-2.8543922E-005	1.8699786E-009
2	0	0	1	1	3.578781909592362E+002	1.4436671E-003	1.2376406E-003	-4.315187592618258E-004	2.000000000000000E+000	-2.8558383E-005	5.3406513E-010
2	0	0	0	1	3.579115909583925E+002	-1.8950592E-003	-2.1390631E-003	-4.521927154834257E-004	2.000000000000000E+000	-2.8573580E-005	9.6726871E-010
2	0	0	0	1	3.579447909575538E+002	-5.2137943E-003	-5.4488196E-003	-4.726567387404886E-004	2.000000000000000E+000	-2.8589369E-005	2.5754212E-009
2	0	0	1	1	3.579781909567100E+002	-8.5525224E-003	-8.7750591E-003	-4.950011513749451E-004	2.000000000000000E+000	-2.8605975E-005	4.3436645E-009
2	0	0	0	1	3.580114909558688E+002	-1.1886822E-002	-1.2122412E-002	-5.158991991122009E-004	2.000000000000000E+000	-2.8623237E-005	6.2539427E-009
2	0	0	0	1	3.580447909550276E+002	-1.5216648E-002	-1.5436326E-002	-5.353104205116522E-004	2.000000000000000E+000	-2.8641187E-005	8.2632265E-009
2	0	0	1	1	3.580781909541838E+002	-1.8555377E-002	-1.8785013E-002	-5.569113060873553E-004	2.000000000000000E+000	-2.8659855E-005	1.0461586E-008
2	0	0	1	1	3.581113909533451E+002	-2.1874109E-002	-2.2078209E-002	-5.768895514463811E-004	2.000000000000000E+000	-2.8679098E-005	1.2736688E-008
2	0	0	0	1	3.581447909525014E+002	-2.5212837E-002	-2.5422510E-002	-5.964740081348032E-004	2.000000000000000E+000	-2.8699138E-005	1.5163867E-008
2	0	0	1	1	3.581780909516601E+002	-2.8544899E-002	-2.8744901E-002	-6.176648636682224E-004	2.000000000000000E+000	-2.8719780E-005	1.7754715E-008
2	0	0	1	1	3.582113909508189E+002	-3.1876963E-002	-3.2101911E-002	-6.372915916721547E-004	2.000000000000000E+000	-2.8741124E-005	2.0458277E-008
2	0	0	0	1	3.582447909499751E+002	-3.5215691E-002	-3.5452556E-002	-6.560730203973731E-004	2.000000000000000E+000	-2.8763159E-005	2.3259465E-008
2	0	0	0	1	3.582779909491364E+002	-3.8534425E-002	-3.8761515E-002	-6.765926797568152E-004	2.000000000000000E+000	-2.8785711E-005	2.6225758E-008
2	0	0	1	1	3.583113909482927E+002	-4.1873153E-002	-4.2117462E-002	-6.966817373123121E-004	2.000000000000000E+000	-2.8809081E-005	2.9342466E-008
2	0	0	0	1	3.583446909474515E+002	-4.5202982E-002	-4.5463610E-002	-7.158518787617404E-004	2.000000000000000E+000	-2.8833019E-005	3.2545209E-008
2	0	0	0	1	3.583779909466102E+002	-4.8537277E-002	-4.8782196E-002	-7.341605088058041E-004	2.000000000000000E+000	-2.8857588E-005	3.5813962E-008
2	0	0	1	1	3.584113909457665E+002	-5.1876012E-002	-5.2108932E-002	-7.535646314998402E-004	2.000000000000000E+000	-2.8882863E-005	3.9267448E-008
2	0	0	1	1	3.584445909449278E+002	-5.5194743E-002	-5.5437837E-002	-7.731211771991788E-004	2.000000000000000E+000	-2.8908638E-005	4.2860165E-008
2	0	0	0	1	3.584779909440840E+002	-5.8533471E-002	-5.8768649E-002	-7.915488058292605E-004	2.000000000000000E+000	-2.8935199E-005	4.6518252E-008
2	0	0	1	1	3.585113909432403E+002	-6.1872192E-002	-6.2127791E-002	-8.098833544149617E-004	2.000000000000000E+000	-2.8962364E-005	5.0316263E-008
2	0	0	1	1	3.585445909424016E+002	-6.5197594E-002	-6.5419845E-002	-8.309248260047709E-004	2.000000000000000E+000	-2.8990025E-005	5.4358974E-008
2	0	0	0	1	3.585779909415578E+002	-6.8536319E-002	-6.8788260E-002	-8.488623943372253E-004	2.000000000000000E+000	-2.9018498E-005	5.8391766E-008
2	0	0	0	1	3.586111909407191E+002	-7.1855053E-002	-7.2101168E-002	-8.692642690719538E-004	2.000000000000000E+000	-2.9047451E-005	6.2674971E-008
2	0	0	1	1	3.586445909398753E+002	-7.5193793E-002	-7.5450242E-002	-8.890627514739624E-004	2.000000000000000E+000	-2.9077250E-005	6.7080002E-008
2	0	0	0	1	3.586779909390316E+002	-7.8532510E-002	-7.8791216E-002	-9.087218486712526E-004	2.000000000000000E+000	-2.9107679E-005	7.1599302E-008
2	0	0	0	1	3.587111909381929E+002	-8.1857912E-002	-8.2107231E-002	-9.299161805473785E-004	2.000000000000000E+000	-2.9138619E-005	7.6352840E-008
2	0	0	1	1	3.587445909373491E+002	-8.5196637E-002	-8.5433200E-002	-9.480907192482829E-004	2.000000000000000E+000	-2.9170416E-005	8.0998426E-008
2	0	0	1	1	3.587777909365104E+002	-8.8515379E-002	-8.8757105E-002	-9.704099563492118E-004	2.000000000000000E+000	-2.9202691E-005	8.6130775E-008
2	0	0	0	1	3.588278909352448E+002	-9.3523286E-002	-9.3697108E-002	-9.802211463495920E-004	2.000000000000000E+000	-2.9253262E-005	9.1843887E-008
2	0	0	1	1	3.588777909339842E+002	-9.8516002E-002	-9.8684430E-002	-1.000375928451829E-003	2.000000000000000E+000	-2.9304789E-005	9.8721529E-008
2	0	0	0	1	3.589111909331405E+002	-1.0185696E-001	-1.0200773E-001	-1.023546946892540E-003	2.000000000000000E+000	-2.9340239E-005	1.0440970E-007
2	0	0	0	1	3.589443909323018E+002	-1.0517569E-001	-1.0532053E-001	-1.048035645009670E-003	2.000000000000000E+000	-2.9376310E-005	1.1037967E-007
2	0	0	1	1	3.589777909314580E+002	-1.0851442E-001	-1.0864856E-001	-1.075899026292508E-003	2.000000000000000E+000	-2.9413459E-005	1.1689488E-007
2	0	0	0	1	3.590111909306142E+002	-1.1185315E-001	-1.1198801E-001	-1.104290415606994E-003	2.000000000000000E+000	-2.9451534E-005	1.2366728E-007
2	0	0	0	1	3.590443909297755E+002	-1.1517411E-001	-1.1530344E-001	-1.137012337603660E-003	2.000000000000000E+000	-2.9490391E-005	1.3110143E-007
2	0	0	1	1	3.590777909289318E+002	-1.1851726E-001	-1.1865374E-001	-1.168328998128007E-003	2.000000000000000E+000	-2.9530534E-005	1.3862660E-007
2	0	0	1	1	3.591109909280931E+002	-1.2183600E-001	-1.2196213E-001	-1.201892907510799E-003	2.000000000000000E+000	-2.9571544E-005	1.4658542E-007
2	0	0	0	1	3.591443909272493E+002	-1.2517473E-001	-1.2530278E-001	-1.240919549233723E-003	2.000000000000000E+000	-2.9614035E-005	1.5549067E-007
2	0	0	1	1	3.591777909264056E+002	-1.2851346E-001	-1.2867701E-001	-1.281458768140441E-003	2.000000000000000E+000	-2.9657844E-005	1.6489429E-007
2	0	0	1	1	3.592109909255669E+002	-1.3183221E-001	-1.3198934E-001	-1.325568645724735E-003	2.000000000000000E+000	-2.9702780E-005	1.7496093E-007
2	0	0	0	1	3.592443909247231E+002	-1.3517760E-001	-1.3533033E-001	-1.373352583484824E-003	2.000000000000000E+000	-2.9749517E-005	1.8585627E-007
2	0	0	0	1	3.592775909238844E+002	-1.3849632E-001	-1.3866204E-001	-1.426033077894115E-003	2.000000000000000E+000	-2.9797668E-005	1.9773665E-007
2	0	0	1	1	3.593109909230407E+002	-1.4183505E-001	-1.4199898E-001	-1.482172766708464E-003	2.000000000000000E+000	-2.9847904E-005	2.1046702E-007
2	0	0	0	1	3.593443909221969E+002	-1.4517377E-001	-1.4533475E-001	-1.544798866156338E-003	2.000000000000000E+000	-2.9900119E-005	2.2451296E-007
2	0	0	0	1	3.593775909213582E+002	-1.4849252E-001	-1.4865604E-001	-1.610497119925437E-003	2.000000000000000E+000	-2.9954161E-005	2.3941013E-007
2	0	0	1	1	3.594109909205145E+002	-1.5183568E-001	-1.5198772E-001	-1.686368862633743E-003	2.000000000000000E+000	-3.0010880E-005	2.5630735E-007
2	0	0	1	1	3.594441909196757E+002	-1.5515664E-001	-1.5531774E-001	-1.764677099388245E-003	2.000000000000000E+000	-3.0069821E-005	2.7408566E-007
2	0	0	0	1	3.594775909188320E+002	-1.5849537E-001	-1.5866061E-001	-1.853540876389298E-003	2.000000000000000E+000	-3.0131949E-005	2.9408392E-007
2	0	0	1	1	3.595109909179882E+002	-1.6183409E-001	-1.6199994E-001	-1.950067725847479E-003	2.000000000000000E+000	-3.0197154E-005	3.1591085E-007
2	0	0	1	1	3.595441909171495E+002	-1.6515283E-001	-1.6533311E-001	-2.048803028665135E-003	2.000000000000000E+000	-3.0265237E-005	3.3873496E-007
2	0	0	0	1	3.595775909163058E+002	-1.6849598E-001	-1.6868038E-001	-2.163038134671362E-003	2.000000000000000E+000	-3.0337278E-005	3.6486210E-007
2	0	0	0	1	3.596107909154671E+002	-1.7181695E-001	-1.7200691E-001	-2.279171085511164E-003	2.000000000000000E+000	-3.0412713E-005	3.9203317E-007
2	0	0	1	1	3.596441909146233E+002	-1.7515567E-001	-1.7533320E-001	-2.404767904119094E-003	2.000000000000000E+000	-3.0492676E-005	4.2163566E-007
2	0	0	0	1	3.596775909137796E+002	-1.7849441E-001	-1.7867596E-001	-2.540263190301775E-003	2.000000000000000E+000	-3.0576986E-005	4.5388398E-007
2	0	0	0	1	3.597107909129409E+002	-1.8181314E-001	-1.8200468E-001	-2.681938419695204E-003	2.000000000000000E+000	-3.0665386E-005	4.8812535E-007
2	0	0	1	1	3.597441909120971E+002	-1.8515411E-001	-1.8535675E-001	-2.826563712830327E-003	2.000000000000000E+000	-3.0759111E-005	5.2392267E-007
2	0	0	1	1	3.597773909112584E+002	-1.8847728E-001	-1.8866311E-001	-2.974547246261929E-003	2.000000000000000E+000	-3.0857154E-005	5.6118733E-007
2	0	0	0	1	3.598107909104147E+002	-1.9181600E-001	-1.9199097E-001	-3.123717519855643E-003	2.000000000000000E+000	-3.0960753E-005	5.9972558E-007
2	0	0	1	1	3.598441909095709E+002	-1.9515471E-001	-1.9532560E-001	-3.268020911868741E-003	2.000000000000000E+000	-3.1069227E-005	6.3832812E-007
2	0	0	1	1	3.598773909087322E+002	-1.9847345E-001	-1.9864422E-001	-3.411089879303268E-003	2.000000000000000E+000	-3.1181808E-005	6.7759328E-007
2	0	0	0	1	3.599107909078884E+002	-2.0181218E-001	-2.0196725E-001	-3.546506731907845E-003	2.000000000000000E+000	-3.1299736E-005	7.1627824E-007
2	0	0	0	1	3.599439909070497E+002	-2.0513760E-001	-2.0532453E-001	-3.673163553666439E-003	2.000000000000000E+000	-3.1421307E-005	7.5419058E-007
2	0	0	1	1	3.599773909062060E+002	-2.0847632E-001	-2.0864993E-001	-3.780736076377141E-003	2.000000000000000E+000	-3.1547479E-005	7.8885034E-007
2	0	0	0	1	3.600107909053622E+002	-2.1181506E-001	-2.1199986E-001	-3.883773740434904E-003	2.000000000000000E+000	-3.1677158E-005	8.2335953E-007
2	0	0	0	1	3.600439909045235E+002	-2.1513379E-001	-2.1532786E-001	-3.959059728906680E-003	2.000000000000000E+000	-3.1809050E-005	8.5249587E-007
2	0	0	1	1	3.600773909036798E+002	-2.1847250E-001	-2.1866091E-001	-4.016784401400290E-003	2.000000000000000E+000	-3.1943950E-005	8.7831370E-007
2	0	0	0	1	3.601106909028385E+002	-2.2180679E-001	-2.2200665E-001	-4.061329149109848E-003	2.000000000000000E+000	-3.2080072E-005	9.0164207E-007
2	0	0	0	1	3.601439909019973E+002	-2.2513662E-001	-2.2534689E-001	-4.089662564403157E-003	2.000000000000000E+000	-3.2217438E-005	9.2159274E-007
2	0	0	1	1	3.601773909011536E+002	-2.2847535E-001	-2.2867551E-001	-4.097351427702026E-003	2.000000000000000E+000	-3.2355823E-005	9.3696394E-007
2	0	0	1	1	3.602105909003149E+002	-2.3179409E-001	-2.3198561E-001	-4.092977349684120E-003	2.000000000000000E+000	-3.2493419E-005	9.4951184E-007
2	0	0	0	1	3.602439908994711E+002	-2.3513281E-001	-2.3532164E-001	-4.077701506121911E-003	2.000000000000000E+000	-3.2631440E-005	9.5957137E-007
2	0	0	1	1	3.602772908986299E+002	-2.3846488E-001	-2.3863669E-001	-4.057399423392609E-003	2.000000000000000E+000	-3.2768479E-005	9.6824431E-007
2	0	0	1	1	3.603105908977886E+002	-2.4179694E-001	-2.4197163E-001	-4.023138925317825E-003	2.000000000000000E+000	-3.2904627E-005	9.7348550E-007
2	0	0	0	1	3.603439908969449E+002	-2.4513566E-001	-2.4530326E-001	-3.992999801638586E-003	2.000000000000000E+000	-3.3040094E-005	9.7949589E-007
2	0	0	0	1	3.603771908961062E+002	-2.4845439E-001	-2.4864681E-001	-3.950932455886173E-003	2.000000000000000E+000	-3.3173539E-005	9.8238672E-007
2	0	0	1	1	3.604105908952624E+002	-2.5179315E-001	-2.5198716E-001	-3.911465345148885E-003	2.000000000000000E+000	-3.3306445E-005	9.8563908E-007
2	0	0	0	1	3.604438908944212E+002	-2.5512296E-001	-2.5530463E-001	-3.870599170671053E-003	2.000000000000000E+000	-3.3437587E-005	9.8818191E-007
2	0	0	0	1	3.604771908935800E+002	-2.5845727E-001	-2.5863859E-001	-3.829536881692332E-003	2.000000000000000E+000	-3.3567336E-005	9.9046599E-007
2	0	0	1	1	3.605105908927362E+002	-2.6179603E-001	-2.6196048E-001	-3.787666431275691E-003	2.000000000000000E+000	-3.3696073E-005	9.9221893E-007
2	0	0	1	1	3.605437908918975E+002	-2.6511472E-001	-2.6530018E-001	-3.747426536957151E-003	2.000000000000000E+000	-3.3822729E-005	9.9419299E-007
2	0	0	0	1	3.605771908910538E+002	-2.6845345E-001	-2.6863286E-001	-3.707852812135731E-003	2.000000000000000E+000	-3.3948865E-005	9.9605109E-007
2	0	0	1	1	3.606104908902125E+002	-2.7178326E-001	-2.7196714E-001	-3.669257950118281E-003	2.000000000000000E+000	-3.4073320E-005	9.9791760E-007
2	0	0	1	1	3.606437908893713E+002	-2.7511758E-001	-2.7529919E-001	-3.633732771251952E-003	2.000000000000000E+000	-3.4196542E-005	1.0003637E-006
2	0	0	0	1	3.606771908885275E+002	-2.7845630E-001	-2.7861318E-001	-3.599327344887160E-003	2.000000000000000E+000	-3.4318909E-005	1.0028200E-006
2	0	0	0	1	3.607103908876888E+002	-2.8177503E-001	-2.8193688E-001	-3.566597872866419E-003	2.000000000000000E+000	-3.4439461E-005	1.0055555E-006
2	0	0	1	1	3.607437908868451E+002	-2.8511375E-001	-2.8528407E-001	-3.539761225100073E-003	2.000000000000000E+000	-3.4559758E-005	1.0098375E-006
2	0	0	0	1	3.607771908860013E+002	-2.8845251E-001	-2.8862315E-001	-3.511500169573731E-003	2.000000000000000E+000	-3.4679095E-005	1.0135003E-006
2	0	0	0	1	3.608103908851626E+002	-2.9177791E-001	-2.9194996E-001	-3.486154079755235E-003	2.000000000000000E+000	-3.4796860E-005	1.0177826E-006
2	0	0	1	1	3.608437908843189E+002	-2.9511663E-001	-2.9527712E-001	-3.459518982794915E-003	2.000000000000000E+000	-3.4914490E-005	1.0215168E-006
2	0	0	1	1	3.608769908834802E+002	-2.9843536E-001	-2.9863164E-001	-3.442343036289507E-003	2.000000000000000E+000	-3.5030698E-005	1.0279925E-006
2	0	0	0	1	3.609103908826364E+002	-3.0177411E-001	-3.0196527E-001	-3.419490748837475E-003	2.000000000000000E+000	-3.5146892E-005	1.0325674E-006
2	0	0	1	1	3.609437908817927E+002	-3.0511284E-001	-3.0529493E-001	-3.403177692110782E-003	2.000000000000000E+000	-3.5262448E-005	1.0389729E-006
2	0	0	1	1	3.609769908809540E+002	-3.0843598E-001	-3.0863339E-001	-3.385313274893959E-003	2.000000000000000E+000	-3.5376772E-005	1.0448207E-006
2	0	0	0	1	3.610103908801102E+002	-3.1177697E-001	-3.1196842E-001	-3.372692521429776E-003	2.000000000000000E+000	-3.5491259E-005	1.0521735E-006
2	0	0	0	1	3.610435908792715E+002	-3.1509569E-001	-3.1529549E-001	-3.358282804822210E-003	2.000000000000000E+000	-3.5604622E-005	1.0588515E-006
2	0	0	1	1	3.610769908784278E+002	-3.1843439E-001	-3.1862143E-001	-3.344988262941585E-003	2.000000000000000E+000	-3.5718229E-005	1.0657849E-006
2	0	0	0	1	3.611103908775840E+002	-3.2177314E-001	-3.2196313E-001	-3.334670920028447E-003	2.000000000000000E+000	-3.5831432E-005	1.0736411E-006
2	0	0	0	1	3.611435908767453E+002	-3.2509407E-001	-3.2526928E-001	-3.325702798055875E-003	2.000000000000000E+000	-3.5943664E-005	1.0817489E-006
2	0	0	1	1	3.611769908759015E+002	-3.2843724E-001	-3.2862186E-001	-3.319618945744049E-003	2.000000000000000E+000	-3.6056306E-005	1.0908993E-006
2	0	0	1	1	3.612101908750628E+002	-3.3175597E-001	-3.3195817E-001	-3.313187171410791E-003	2.000000000000000E+000	-3.6168076E-005	1.0998396E-006
2	0	0	0	1	3.612435908742191E+002	-3.3509472E-001	-3.3530095E-001	-3.308954625126372E-003	2.000000000000000E+000	-3.6280297E-005	1.1094957E-006
2	0	0	1	1	3.612769908733753E+002	-3.3843347E-001	-3.3863309E-001	-3.303772526021388E-003	2.000000000000000E+000	-3.6392390E-005	1.1187667E-006
2	0	0	1	1	3.613101908725366E+002	-3.4175217E-001	-3.4199044E-001	-3.301869894812289E-003	2.000000000000000E+000	-3.6503712E-005	1.1292079E-006
2	0	0	0	1	3.613435908716929E+002	-3.4509757E-001	-3.4532842E-001	-3.298915415884774E-003	2.000000000000000E+000	-3.6615569E-005	1.1392093E-006
2	0	0	0	1	3.613767908708542E+002	-3.4841633E-001	-3.4863594E-001	-3.296511662354305E-003	2.000000000000000E+000	-3.6726673E-005	1.1492824E-006
2	0	0	1	1	3.614101908700104E+002	-3.5175505E-001	-3.5198528E-001	-3.296603294449460E-003	2.000000000000000E+000	-3.6838443E-005	1.1603559E-006
2	0	0	0	1	3.614435908691667E+002	-3.5509375E-001	-3.5532704E-001	-3.297506366237655E-003	2.000000000000000E+000	-3.6950209E-005	1.1716932E-006
2	0	0	0	1	3.614767908683280E+002	-3.5841247E-001	-3.5863093E-001	-3.298041896950626E-003	2.000000000000000E+000	-3.7061342E-005	1.1827798E-006
2	0	0	1	1	3.615101908674842E+002	-3.6175570E-001	-3.6196294E-001	-3.299006006962840E-003	2.000000000000000E+000	-3.7173184E-005	1.1941179E-006
2	0	0	1	1	3.615433908666455E+002	-3.6507663E-001	-3.6528647E-001	-3.303121552733631E-003	2.000000000000000E+000	-3.7284412E-005	1.2065856E-006
2	0	0	0	1	3.615767908658017E+002	-3.6841533E-001	-3.6862391E-001	-3.304526759823560E-003	2.000000000000000E+000	-3.7396407E-005	1.2181276E-006
2	0	0	1	1	3.616101908649580E+002	-3.7175405E-001	-3.7195787E-001	-3.309273293276356E-003	2.000000000000000E+000	-3.7508522E-005	1.2309102E-006
2	0	0	1	1	3.616433908641193E+002	-3.7507281E-001	-3.7528837E-001	-3.314427540656945E-003	2.000000000000000E+000	-3.7620131E-005	1.2438661E-006
2	0	0	0	1	3.616767908632755E+002	-3.7841597E-001	-3.7861925E-001	-3.317146040558504E-003	2.000000000000000E+000	-3.7732541E-005	1.2559353E-006
2	0	0	0	1	3.617099908624368E+002	-3.8173693E-001	-3.8195464E-001	-3.325635755948794E-003	2.000000000000000E+000	-3.7844489E-005	1.2702420E-006
2	0	0	1	1	3.617433908615931E+002	-3.8507566E-001	-3.8532385E-001	-3.328900723470189E-003	2.000000000000000E+000	-3.7957299E-005	1.2827048E-006
2	0	0	0	1	3.617767908607493E+002	-3.8841435E-001	-3.8864455E-001	-3.337443794152935E-003	2.000000000000000E+000	-3.8070291E-005	1.2970793E-006
2	0	0	0	1	3.618099908599106E+002	-3.9173311E-001	-3.9195654E-001	-3.342957896432675E-003	2.000000000000000E+000	-3.8182829E-005	1.3102942E-006
2	0	0	1	1	3.618433908590669E+002	-3.9507407E-001	-3.9530221E-001	-3.350683274006261E-003	2.000000000000000E+000	-3.8296253E-005	1.3245325E-006
2	0	0	1	1	3.618765908582282E+002	-3.9839724E-001	-3.9863521E-001	-3.358387653732073E-003	2.000000000000000E+000	-3.8409278E-005	1.3387715E-006
2	0	0	0	1	3.619099908573844E+002	-4.0173593E-001	-4.0197390E-001	-3.367217591941085E-003	2.000000000000000E+000	-3.8523256E-005	1.3535335E-006
2	0	0	1	1	3.619433908565406E+002	-4.0507472E-001	-4.0531200E-001	-3.374483378531825E-003	2.000000000000000E+000	-3.8637503E-005	1.3677186E-006
2	0	0	1	1	3.619765908557019E+002	-4.0839347E-001	-4.0860850E-001	-3.381983201872111E-003	2.000000000000000E+000	-3.8751317E-005	1.3819071E-006
2	0	0	0	1	3.620099908548582E+002	-4.1173217E-001	-4.1194791E-001	-3.391177662366924E-003	2.000000000000000E+000	-3.8866125E-005	1.3969885E-006
2	0	0	0	1	3.620431908540195E+002	-4.1505754E-001	-4.1526359E-001	-3.402794125070580E-003	2.000000000000000E+000	-3.8980583E-005	1.4130566E-006
2	0	0	1	1	3.620765908531757E+002	-4.1839623E-001	-4.1863468E-001	-3.413790428986194E-003	2.000000000000000E+000	-3.9096078E-005	1.4291311E-006
2	0	0	0	1	3.621099908523320E+002	-4.2173502E-001	-4.2196614E-001	-3.423942014476892E-003	2.000000000000000E+000	-3.9211896E-005	1.4447876E-006
2	0	0	0	1	3.621431908514933E+002	-4.2505375E-001	-4.2527595E-001	-3.434273211810418E-003	2.000000000000000E+000	-3.9327384E-005	1.4605138E-006
2	0	0	1	1	3.621765908506495E+002	-4.2839247E-001	-4.2860201E-001	-3.444861496127161E-003	2.000000000000000E+000	-3.9443912E-005	1.4764746E-006
2	0	0	0	1	3.622098908498083E+002	-4.3172678E-001	-4.3193626E-001	-3.456599528206875E-003	2.000000000000000E+000	-3.9560484E-005	1.4930307E-006
2	0	0	0	1	3.622431908489671E+002	-4.3505666E-001	-4.3525377E-001	-3.467385775675881E-003	2.000000000000000E+000	-3.9677445E-005	1.5091928E-006
2	0	0	1	1	3.622765908481233E+002	-4.3839538E-001	-4.3860951E-001	-3.481272645806680E-003	2.000000000000000E+000	-3.9795152E-005	1.5269193E-006
2	0	0	1	1	3.623097908472846E+002	-4.4171411E-001	-4.4193578E-001	-3.494499360579856E-003	2.000000000000000E+000	-3.9912607E-005	1.5443443E-006
2	0	0	0	1	3.623431908464408E+002	-4.4505277E-001	-4.4526812E-001	-3.506829940425060E-003	2.000000000000000E+000	-4.0031191E-005	1.5614796E-006
2	0	0	1	1	3.623764908455996E+002	-4.4838485E-001	-4.4858056E-001	-3.521203546582368E-003	2.000000000000000E+000	-4.0149851E-005	1.5795434E-006
2	0	0	1	1	3.624097908447584E+002	-4.5171693E-001	-4.5191568E-001	-3.536530412157950E-003	2.000000000000000E+000	-4.0269006E-005	1.5982135E-006
2	0	0	0	1	3.624431908439146E+002	-4.5505565E-001	-4.5525312E-001	-3.551002555290714E-003	2.000000000000000E+000	-4.0389008E-005	1.6166050E-006
2	0	0	0	1	3.624763908430759E+002	-4.5837438E-001	-4.5857307E-001	-3.566544366018491E-003	2.000000000000000E+000	-4.0508814E-005	1.6355212E-006
2	0	0	1	1	3.625097908422322E+002	-4.6171311E-001	-4.6192652E-001	-3.582788467411543E-003	2.000000000000000E+000	-4.0629875E-005	1.6549850E-006
2	0	0	0	1	3.625430908413909E+002	-4.6504518E-001	-4.6523777E-001	-3.599350459217443E-003	2.000000000000000E+000	-4.0751100E-005	1.6745538E-006
2	0	0	0	1	3.625763908405497E+002	-4.6837726E-001	-4.6858791E-001	-3.616531909005807E-003	2.000000000000000E+000	-4.0872936E-005	1.6946631E-006
2	0	0	1	1	3.626097908397060E+002	-4.7171596E-001	-4.7193524E-001	-3.634967990295050E-003	2.000000000000000E+000	-4.0995707E-005	1.7154695E-006
2	0	0	1	1	3.626429908388673E+002	-4.7503471E-001	-4.7525257E-001	-3.650342266159394E-003	2.000000000000000E+000	-4.1118299E-005	1.7348345E-006
2	0	0	0	1	3.626763908380235E+002	-4.7837344E-001	-4.7859803E-001	-3.671951811147332E-003	2.000000000000000E+000	-4.1242274E-005	1.7573889E-006
2	0	0	1	1	3.627096908371823E+002	-4.8170322E-001	-4.8192409E-001	-3.691519064659067E-003	2.000000000000000E+000	-4.1366566E-005	1.7790320E-006
2	0	0	1	1	3.627429908363411E+002	-4.8503754E-001	-4.8524716E-001	-3.710444942283807E-003	2.000000000000000E+000	-4.1491483E-005	1.8004829E-006
2	0	0	0	1	3.627763908354973E+002	-4.8837629E-001	-4.8861024E-001	-3.731243253693076E-003	2.000000000000000E+000	-4.1617426E-005	1.8231236E-006
2	0	0	0	1	3.628095908346586E+002	-4.9169505E-001	-4.9191457E-001	-3.753883774684434E-003	2.000000000000000E+000	-4.1743348E-005	1.8465902E-006
2	0	0	1	1	3.628429908338148E+002	-4.9503377E-001	-4.9524197E-001	-3.775980197404154E-003	2.000000000000000E+000	-4.1870771E-005	1.8700239E-006
2	0	0	0	1	3.628763908329711E+002	-4.9837250E-001	-4.9858901E-001	-3.801084579021401E-003	2.000000000000000E+000	-4.1998974E-005	1.8951790E-006
2	0	0	0	1	3.629095908321324E+002	-5.0169784E-001	-5.0193459E-001	-3.824509573438516E-003	2.000000000000000E+000	-4.2127227E-005	1.9196536E-006
2	0	0	1	1	3.629429908312886E+002	-5.0503659E-001	-5.0526100E-001	-3.849231632096531E-003	2.000000000000000E+000	-4.2257074E-005	1.9448667E-006
2	0	0	1	1	3.629761908304499E+002	-5.0835532E-001	-5.0859028E-001	-3.876357632893991E-003	2.000000000000000E+000	-4.2386993E-005	1.9714778E-006
2	0	0	0	1	3.630095908296062E+002	-5.1169407E-001	-5.1192254E-001	-3.900988289797500E-003	2.000000000000000E+000	-4.2518572E-005	1.9970039E-006
2	0	0	1	1	3.630429908287624E+002	-5.1503283E-001	-5.1526308E-001	-3.931143325424740E-003	2.000000000000000E+000	-4.2651045E-005	2.0255729E-006
2	0	0	1	1	3.630761908279237E+002	-5.1835597E-001	-5.1856190E-001	-3.959934110591534E-003	2.000000000000000E+000	-4.2783715E-005	2.0534710E-006
2	0	0	0	1	3.631095908270800E+002	-5.2169693E-001	-5.2191997E-001	-3.989791912096755E-003	2.000000000000000E+000	-4.2918200E-005	2.0823520E-006
2	0	0	0	1	3.631427908262413E+002	-5.2501565E-001	-5.2523160E-001	-4.021400541839984E-003	2.000000000000000E+000	-4.3052889E-005	2.1121666E-006
2	0	0	1	1	3.631761908253975E+002	-5.2835441E-001	-5.2857578E-001	-4.056326095047132E-003	2.000000000000000E+000	-4.3189451E-005	2.1440758E-006
2	0	0	0	1	3.632095908245537E+002	-5.3169310E-001	-5.3191715E-001	-4.088134263449200E-003	2.000000000000000E+000	-4.3327142E-005	2.1745489E-006
2	0	0	0	1	3.632427908237150E+002	-5.3501403E-001	-5.3521764E-001	-4.123455992839489E-003	2.000000000000000E+000	-4.3465170E-005	2.2069464E-006
2	0	0	1	1	3.632761908228713E+002	-5.3835732E-001	-5.3855103E-001	-4.159720691677637E-003	2.000000000000000E+000	-4.3605196E-005	2.2402219E-006
2	0	0	1	1	3.633093908220326E+002	-5.4167598E-001	-5.4188323E-001	-4.199025895219130E-003	2.000000000000000E+000	-4.3745662E-005	2.2753818E-006
2	0	0	0	1	3.633427908211888E+002	-5.4501474E-001	-5.4522759E-001	-4.239525264285345E-003	2.000000000000000E+000	-4.3888293E-005	2.3115060E-006
2	0	0	1	1	3.633761908203451E+002	-5.4835343E-001	-5.4856646E-001	-4.279922763687681E-003	2.000000000000000E+000	-4.4032244E-005	2.3478221E-006
2	0	0	1	1	3.634093908195064E+002	-5.5167216E-001	-5.5188221E-001	-4.324243163713659E-003	2.000000000000000E+000	-4.4176781E-005	2.3864729E-006
2	0	0	0	1	3.634427908186626E+002	-5.5501753E-001	-5.5526251E-001	-4.368803815170241E-003	2.000000000000000E+000	-4.4323628E-005	2.4258329E-006
2	0	0	0	1	3.634759908178239E+002	-5.5833626E-001	-5.5856633E-001	-4.415021960249538E-003	2.000000000000000E+000	-4.4471115E-005	2.4660826E-006
2	0	0	1	1	3.635093908169802E+002	-5.6167501E-001	-5.6189233E-001	-4.460569803750661E-003	2.000000000000000E+000	-4.4621022E-005	2.5063600E-006
2	0	0	0	1	3.635427908161364E+002	-5.6501371E-001	-5.6524020E-001	-4.512070191041053E-003	2.000000000000000E+000	-4.4772583E-005	2.5504035E-006
2	0	0	0	1	3.635759908152977E+002	-5.6833249E-001	-5.6856221E-001	-4.563522203405043E-003	2.000000000000000E+000	-4.4924927E-005	2.5946463E-006
2	0	0	1	1	3.636093908144539E+002	-5.7167786E-001	-5.7191497E-001	-4.614891845574461E-003	2.000000000000000E+000	-4.5079880E-005	2.6393257E-006
2	0	0	1	1	3.636425908136152E+002	-5.7499659E-001	-5.7520431E-001	-4.667624286095684E-003	2.000000000000000E+000	-4.5235669E-005	2.6848377E-006
2	0	0	0	1	3.636759908127715E+002	-5.7833529E-001	-5.7856178E-001	-4.725632313520356E-003	2.000000000000000E+000	-4.5394270E-005	2.7340702E-006
2	0	0	1	1	3.637093908119277E+002	-5.8167404E-001	-5.8186859E-001	-4.785419867176739E-003	2.000000000000000E+000	-4.5554803E-005	2.7844856E-006
2	0	0	1	1	3.637425908110890E+002	-5.8499277E-001	-5.8521521E-001	-4.842833326525867E-003	2.000000000000000E+000	-4.5716370E-005	2.8340996E-006
2	0	0	0	1	3.637759908102453E+002	-5.8833593E-001	-5.8857536E-001	-4.907349340716863E-003	2.000000000000000E+000	-4.5880952E-005	2.8883449E-006
2	0	0	0	1	3.638091908094066E+002	-5.9165692E-001	-5.9187168E-001	-4.970798755993783E-003	2.000000000000000E+000	-4.6046644E-005	2.9420751E-006
2	0	0	1	1	3.638425908085628E+002	-5.9499562E-001	-5.9522158E-001	-5.035127451324270E-003	2.000000000000000E+000	-4.6215460E-005	2.9970165E-006
2	0	0	0	1	3.638742908077620E+002	-5.9816480E-001	-5.9838450E-001	-5.099635278719927E-003	2.000000000000000E+000	-4.6377649E-005	3.0515428E-006
2	0	0	0	1	3.638909908073401E+002	-5.9982693E-001	-6.0008466E-001	-5.128323980089691E-003	2.000000000000000E+000	-4.6463771E-005	3.0774286E-006