EC-Lab ASCII FILE
Nb header lines : 53                          

Cyclic Voltammetry

Run on channel : 1 (SN 0696)
User : 
Electrode connection : standard
Ewe ctrl range : min = -10.00 V, max = 10.00 V
Ewe,I filtering : 50 kHz
Channel : Grounded
Acquisition started on : 05/17/2017 12:14:48
Saved on :
	File : 100 uM MB 10mM PB Second ITO_07_CV_C01.mpr
	Directory : \\userfs\st659\w2k\EC-Lab\Data\ITO Characterisation 17-5-17\
	Host : 144.32.136.43
Device : SP-300 (SN 0182)
Address : USB
EC-Lab for windows v10.44 (software)
Internet server v10.44 (firmware)
Command interpretor v10.44 (firmware)
Electrode material : 
Initial state : 
Electrolyte : 
Comments : 
Cable : standard
Electrode surface area : 0.001 cm²
Characteristic mass : 0.001 g
Equivalent Weight : 0.000 g/eq.
Density : 0.000 g/cm3
Ei (V)              0.000               
vs.                 Eoc                 
dE/dt               2500.000            
dE/dt unit          mV/s                
E1 (V)              0.100               
vs.                 Ref                 
Step percent        50                  
N                   10                  
E range min (V)     -10.000             
E range max (V)     10.000              
I Range             Auto                
I Range min         Unset               
I Range max         Unset               
I Range init        Unset               
Bandwidth           8                   
E2 (V)              -0.600              
vs.                 Ref                 
nc cycles           2                   
Reverse Scan        1                   
Ef (V)              0.000               
vs.                 Eoc                 

mode	ox/red	error	control changes	counter inc.	time/s	control/V	Ewe/V	<I>/mA	cycle number	(Q-Qo)/C	P/W
2	1	0	0	1	4.229033893165615E+002	-5.9982693E-001	-6.0005033E-001	-1.832839101552963E-002	2.000000000000000E+000	-4.0899154E-006	1.0997957E-005
2	1	0	1	1	4.229044893165337E+002	-5.9699488E-001	-5.9723020E-001	-1.548624304390007E-002	2.000000000000000E+000	-4.1071780E-006	9.2488517E-006
2	1	0	1	1	4.229064893164832E+002	-5.9199679E-001	-5.9224629E-001	-1.217690166049581E-002	2.000000000000000E+000	-4.1344333E-006	7.2117250E-006
2	1	0	1	1	4.229084893164327E+002	-5.8699864E-001	-5.8722776E-001	-1.012874357365942E-002	2.000000000000000E+000	-4.1565095E-006	5.9478793E-006
2	1	0	1	1	4.229104893163822E+002	-5.8200049E-001	-5.8221656E-001	-8.689934364964647E-003	2.000000000000000E+000	-4.1751678E-006	5.0594235E-006
2	1	0	1	1	4.229124893163316E+002	-5.7700247E-001	-5.7723874E-001	-7.604978944376228E-003	2.000000000000000E+000	-4.1913418E-006	4.3898885E-006
2	1	0	1	1	4.229144893162811E+002	-5.7200438E-001	-5.7224673E-001	-6.721720794909444E-003	2.000000000000000E+000	-4.2055754E-006	3.8464827E-006
2	1	0	1	1	4.229164893162306E+002	-5.6700629E-001	-5.6725448E-001	-5.993692899816480E-003	2.000000000000000E+000	-4.2182137E-006	3.3999493E-006
2	1	0	1	1	4.229184893161801E+002	-5.6200820E-001	-5.6222826E-001	-5.376036960620306E-003	2.000000000000000E+000	-4.2295183E-006	3.0225599E-006
2	1	0	1	1	4.229204893161295E+002	-5.5701005E-001	-5.5723363E-001	-4.845595033303757E-003	2.000000000000000E+000	-4.2396841E-006	2.7001286E-006
2	1	0	1	1	4.229224893160790E+002	-5.5201197E-001	-5.5221957E-001	-4.374036511004903E-003	2.000000000000000E+000	-4.2488559E-006	2.4154285E-006
2	1	0	1	1	4.229244893160285E+002	-5.4701388E-001	-5.4722136E-001	-3.964879564490618E-003	2.000000000000000E+000	-4.2571533E-006	2.1696667E-006
2	1	0	1	1	4.229264893159780E+002	-5.4201579E-001	-5.4222131E-001	-3.595938706338411E-003	2.000000000000000E+000	-4.2646734E-006	1.9497945E-006
2	1	0	1	1	4.229284893159274E+002	-5.3701770E-001	-5.3721333E-001	-3.256577886178183E-003	2.000000000000000E+000	-4.2714919E-006	1.7494771E-006
2	1	0	1	1	4.229304893158769E+002	-5.3201962E-001	-5.3222573E-001	-2.960632902916892E-003	2.000000000000000E+000	-4.2776774E-006	1.5757250E-006
2	1	0	1	1	4.229324893158264E+002	-5.2702153E-001	-5.2725470E-001	-2.678418345213783E-003	2.000000000000000E+000	-4.2832867E-006	1.4122087E-006
2	1	0	1	1	4.229344893157759E+002	-5.2202338E-001	-5.2224779E-001	-2.411650304086122E-003	2.000000000000000E+000	-4.2883494E-006	1.2594791E-006
2	1	0	1	1	4.229364893157253E+002	-5.1702535E-001	-5.1723075E-001	-2.164037277301141E-003	2.000000000000000E+000	-4.2929005E-006	1.1193066E-006
2	1	0	1	1	4.229384893156748E+002	-5.1202720E-001	-5.1225179E-001	-1.949054884663484E-003	2.000000000000000E+000	-4.2969905E-006	9.9840690E-007
2	1	0	1	1	4.229404893156243E+002	-5.0702912E-001	-5.0724119E-001	-1.732504656501991E-003	2.000000000000000E+000	-4.3006512E-006	8.7879772E-007
2	1	0	1	1	4.229424893155738E+002	-5.0203103E-001	-5.0224209E-001	-1.528328653269758E-003	2.000000000000000E+000	-4.3038940E-006	7.6759096E-007
2	1	0	1	1	4.229444893155232E+002	-4.9703297E-001	-4.9725410E-001	-1.340192689566623E-003	2.000000000000000E+000	-4.3067430E-006	6.6641633E-007
2	1	0	1	1	4.229464893154727E+002	-4.9203485E-001	-4.9227285E-001	-1.165109049970352E-003	2.000000000000000E+000	-4.3092296E-006	5.7355157E-007
2	1	0	1	1	4.229484893154222E+002	-4.8703676E-001	-4.8727068E-001	-1.004073651011418E-003	2.000000000000000E+000	-4.3113841E-006	4.8925563E-007
2	1	0	1	1	4.229504893153717E+002	-4.8203868E-001	-4.8224595E-001	-8.429958460535805E-004	2.000000000000000E+000	-4.3132131E-006	4.0653134E-007
2	1	0	1	1	4.229524893153211E+002	-4.7704056E-001	-4.7727871E-001	-6.817273682978934E-004	2.000000000000000E+000	-4.3147206E-006	3.2537395E-007
2	1	0	1	1	4.229544893152706E+002	-4.7204247E-001	-4.7227776E-001	-5.422833955700890E-004	2.000000000000000E+000	-4.3159275E-006	2.5610839E-007
2	1	0	1	1	4.229564893152201E+002	-4.6704438E-001	-4.6726897E-001	-3.923509292589073E-004	2.000000000000000E+000	-4.3168493E-006	1.8333341E-007
2	1	0	1	1	4.229584893151696E+002	-4.6204627E-001	-4.6225703E-001	-2.564667108989238E-004	2.000000000000000E+000	-4.3174832E-006	1.1855354E-007
2	1	0	1	1	4.229604893151190E+002	-4.5704818E-001	-4.5725396E-001	-1.237608096810542E-004	2.000000000000000E+000	-4.3178507E-006	5.6590121E-008
2	1	0	1	1	4.229624893150685E+002	-4.5205009E-001	-4.5224872E-001	6.126974890897775E-006	2.000000000000000E+000	-4.3179512E-006	2.7709166E-009
2	1	0	1	1	4.229644893150180E+002	-4.4688541E-001	-4.4709051E-001	1.996449163515182E-004	2.000000000000000E+000	-4.3177324E-006	8.9259345E-008
2	1	0	1	1	4.229664893149675E+002	-4.4188732E-001	-4.4211993E-001	2.805651946163022E-004	2.000000000000000E+000	-4.3172454E-006	1.2404347E-007
2	1	0	1	1	4.229684893149170E+002	-4.3688920E-001	-4.3712470E-001	3.802164595564754E-004	2.000000000000000E+000	-4.3165737E-006	1.6620200E-007
2	1	0	1	1	4.229704893148664E+002	-4.3189111E-001	-4.3209040E-001	4.891908011030763E-004	2.000000000000000E+000	-4.3156938E-006	2.1137465E-007
2	1	0	1	1	4.229724893148159E+002	-4.2689303E-001	-4.2710519E-001	5.997331399056663E-004	2.000000000000000E+000	-4.3145956E-006	2.5614915E-007
2	1	0	1	1	4.229744893147654E+002	-4.2189491E-001	-4.2214134E-001	6.954220132734520E-004	2.000000000000000E+000	-4.3132914E-006	2.9356639E-007
2	1	0	1	1	4.229764893147149E+002	-4.1689685E-001	-4.1712362E-001	8.106047656231867E-004	2.000000000000000E+000	-4.3117743E-006	3.3812239E-007
2	1	0	1	1	4.229784893146643E+002	-4.1189876E-001	-4.1211975E-001	9.183077975952391E-004	2.000000000000000E+000	-4.3100354E-006	3.7845277E-007
2	1	0	1	1	4.229804893146138E+002	-4.0690064E-001	-4.0711921E-001	1.017831871308772E-003	2.000000000000000E+000	-4.3080854E-006	4.1437892E-007
2	1	0	1	1	4.229824893145633E+002	-4.0190256E-001	-4.0212509E-001	1.111910397488224E-003	2.000000000000000E+000	-4.3059449E-006	4.4712706E-007
2	1	0	1	1	4.229844893145128E+002	-3.9690444E-001	-3.9715502E-001	1.219359221484714E-003	2.000000000000000E+000	-4.3036057E-006	4.8427461E-007
2	1	0	1	1	4.229864893144622E+002	-3.9190635E-001	-3.9212698E-001	1.324477239727964E-003	2.000000000000000E+000	-4.3010486E-006	5.1936325E-007
2	1	0	1	1	4.229884893144117E+002	-3.8690829E-001	-3.8714167E-001	1.420060156129293E-003	2.000000000000000E+000	-4.2982938E-006	5.4976448E-007
2	1	0	1	1	4.229904893143612E+002	-3.8191018E-001	-3.8212952E-001	1.531577140086587E-003	2.000000000000000E+000	-4.2953347E-006	5.8526086E-007
2	1	0	1	1	4.229924893143107E+002	-3.7691209E-001	-3.7711757E-001	1.636716341636202E-003	2.000000000000000E+000	-4.2921533E-006	6.1723449E-007
2	1	0	1	1	4.229944893142601E+002	-3.7191400E-001	-3.7213123E-001	1.734100463282734E-003	2.000000000000000E+000	-4.2887737E-006	6.4531292E-007
2	1	0	1	1	4.229964893142096E+002	-3.6691591E-001	-3.6712202E-001	1.829344435716645E-003	2.000000000000000E+000	-4.2852007E-006	6.7159266E-007
2	1	0	1	1	4.229984893141591E+002	-3.6191779E-001	-3.6212513E-001	1.919439426754051E-003	2.000000000000000E+000	-4.2814409E-006	6.9507723E-007
2	1	0	1	1	4.230004893141086E+002	-3.5691974E-001	-3.5712820E-001	2.011059955167288E-003	2.000000000000000E+000	-4.2775023E-006	7.1820625E-007
2	1	0	1	1	4.230024893140580E+002	-3.5192162E-001	-3.5214546E-001	2.118784281644064E-003	2.000000000000000E+000	-4.2733645E-006	7.4612029E-007
2	1	0	1	1	4.230044893140075E+002	-3.4692353E-001	-3.4712967E-001	2.226487310761312E-003	2.000000000000000E+000	-4.2690071E-006	7.7287979E-007
2	1	0	1	1	4.230064893139570E+002	-3.4192541E-001	-3.4214631E-001	2.327685316105194E-003	2.000000000000000E+000	-4.2644397E-006	7.9640893E-007
2	1	0	1	1	4.230084893139065E+002	-3.3692732E-001	-3.3713266E-001	2.451830863921915E-003	2.000000000000000E+000	-4.2596489E-006	8.2659227E-007
2	1	0	1	1	4.230104893138559E+002	-3.3192924E-001	-3.3211878E-001	2.546333447652519E-003	2.000000000000000E+000	-4.2546444E-006	8.4568518E-007
2	1	0	1	1	4.230124893138054E+002	-3.2693115E-001	-3.2710510E-001	2.658846000586988E-003	2.000000000000000E+000	-4.2494307E-006	8.6972210E-007
2	1	0	1	1	4.230144893137549E+002	-3.2193303E-001	-3.2212433E-001	2.767269548308443E-003	2.000000000000000E+000	-4.2439933E-006	8.9140485E-007
2	1	0	1	1	4.230164893137044E+002	-3.1693494E-001	-3.1713295E-001	2.872705376274903E-003	2.000000000000000E+000	-4.2383390E-006	9.1102953E-007
2	1	0	1	1	4.230184893136538E+002	-3.1193686E-001	-3.1215379E-001	2.988544820052792E-003	2.000000000000000E+000	-4.2324682E-006	9.3288560E-007
2	1	0	1	1	4.230204893136033E+002	-3.0693874E-001	-3.0712506E-001	3.115741793206121E-003	2.000000000000000E+000	-4.2263500E-006	9.5692235E-007
2	1	0	1	1	4.230224893135528E+002	-3.0194068E-001	-3.0214086E-001	3.253003310722629E-003	2.000000000000000E+000	-4.2199667E-006	9.8286523E-007
2	1	0	1	1	4.230244893135023E+002	-2.9694256E-001	-2.9712656E-001	3.391430120902636E-003	2.000000000000000E+000	-4.2133097E-006	1.0076840E-006
2	1	0	1	1	4.230264893134517E+002	-2.9194447E-001	-2.9211143E-001	3.538586782876045E-003	2.000000000000000E+000	-4.2063648E-006	1.0336616E-006
2	1	0	1	1	4.230284893134012E+002	-2.8694639E-001	-2.8711766E-001	3.688943067876007E-003	2.000000000000000E+000	-4.1991248E-006	1.0591607E-006
2	1	0	1	1	4.230304893133507E+002	-2.8194827E-001	-2.8211570E-001	3.862416319963018E-003	2.000000000000000E+000	-4.1915578E-006	1.0896483E-006
2	1	0	1	1	4.230324893133002E+002	-2.7695021E-001	-2.7711648E-001	4.009763583882081E-003	2.000000000000000E+000	-4.1836702E-006	1.1111715E-006
2	1	0	1	1	4.230344893132497E+002	-2.7195212E-001	-2.7215722E-001	4.200188043240717E-003	2.000000000000000E+000	-4.1754438E-006	1.1431115E-006
2	1	0	1	1	4.230364893131991E+002	-2.6695397E-001	-2.6715076E-001	4.389319873603692E-003	2.000000000000000E+000	-4.1668341E-006	1.1726102E-006
2	1	0	1	1	4.230384893131486E+002	-2.6195592E-001	-2.6214242E-001	4.620447751828284E-003	2.000000000000000E+000	-4.1578019E-006	1.2112154E-006
2	1	0	1	1	4.230404893130981E+002	-2.5695780E-001	-2.5713637E-001	4.860115510685631E-003	2.000000000000000E+000	-4.1482990E-006	1.2497125E-006
2	1	0	1	1	4.230424893130476E+002	-2.5195974E-001	-2.5215152E-001	5.100523912207985E-003	2.000000000000000E+000	-4.1383141E-006	1.2861049E-006
2	1	0	1	1	4.230444893129970E+002	-2.4696164E-001	-2.4716775E-001	5.374517553516645E-003	2.000000000000000E+000	-4.1278149E-006	1.3284074E-006
2	1	0	1	1	4.230464893129465E+002	-2.4196354E-001	-2.4214539E-001	5.698558782367212E-003	2.000000000000000E+000	-4.1167114E-006	1.3798798E-006
2	1	0	1	1	4.230484893128960E+002	-2.3696545E-001	-2.3715931E-001	6.017345414673188E-003	2.000000000000000E+000	-4.1049639E-006	1.4270695E-006
2	1	0	1	1	4.230504893128455E+002	-2.3196734E-001	-2.3217510E-001	6.364885726017955E-003	2.000000000000000E+000	-4.0925452E-006	1.4777679E-006
2	1	0	1	1	4.230524893127949E+002	-2.2696924E-001	-2.2719322E-001	6.737131397939161E-003	2.000000000000000E+000	-4.0794075E-006	1.5306306E-006
2	1	0	1	1	4.230544893127444E+002	-2.2197117E-001	-2.2218104E-001	7.180762761789916E-003	2.000000000000000E+000	-4.0654486E-006	1.5954294E-006
2	1	0	1	1	4.230564893126939E+002	-2.1697307E-001	-2.1719089E-001	7.610685088568291E-003	2.000000000000000E+000	-4.0506143E-006	1.6529715E-006
2	1	0	1	1	4.230584893126434E+002	-2.1197496E-001	-2.1216388E-001	8.081713599292717E-003	2.000000000000000E+000	-4.0348737E-006	1.7146477E-006
2	1	0	1	1	4.230604893125928E+002	-2.0697688E-001	-2.0714261E-001	8.610269894031963E-003	2.000000000000000E+000	-4.0181308E-006	1.7835538E-006
2	1	0	1	1	4.230624893125423E+002	-2.0197877E-001	-2.0215501E-001	9.139906505475276E-003	2.000000000000000E+000	-4.0003279E-006	1.8476779E-006
2	1	0	1	1	4.230644893124918E+002	-1.9698067E-001	-1.9715172E-001	9.703276120490101E-003	2.000000000000000E+000	-3.9814272E-006	1.9130175E-006
2	1	0	1	1	4.230664893124413E+002	-1.9198260E-001	-1.9217366E-001	1.026791643380418E-002	2.000000000000000E+000	-3.9613956E-006	1.9732231E-006
2	1	0	1	1	4.230684893123907E+002	-1.8698449E-001	-1.8717398E-001	1.086186267457377E-002	2.000000000000000E+000	-3.9402144E-006	2.0330581E-006
2	1	0	1	1	4.230704893123402E+002	-1.8198641E-001	-1.8218619E-001	1.147729243469560E-002	2.000000000000000E+000	-3.9178140E-006	2.0910040E-006
2	1	0	1	1	4.230724893122897E+002	-1.7698832E-001	-1.7717674E-001	1.208513838800074E-002	2.000000000000000E+000	-3.8941848E-006	2.1412054E-006
2	1	0	1	1	4.230744893122392E+002	-1.7199020E-001	-1.7219426E-001	1.270525221823643E-002	2.000000000000000E+000	-3.8693383E-006	2.1877715E-006
2	1	0	1	1	4.230764893121886E+002	-1.6699213E-001	-1.6718630E-001	1.334487995760969E-002	2.000000000000000E+000	-3.8432222E-006	2.2310812E-006
2	1	0	1	1	4.230784893121381E+002	-1.6199403E-001	-1.6217963E-001	1.393687570917895E-002	2.000000000000000E+000	-3.8158710E-006	2.2602774E-006
2	1	0	1	1	4.230804893120876E+002	-1.5699592E-001	-1.5717340E-001	1.453427469136334E-002	2.000000000000000E+000	-3.7873390E-006	2.2844013E-006
2	1	0	1	1	4.230824893120371E+002	-1.5199783E-001	-1.5216908E-001	1.511220155084125E-002	2.000000000000000E+000	-3.7576322E-006	2.2996098E-006
2	1	0	1	1	4.230844893119865E+002	-1.4699973E-001	-1.4719355E-001	1.569027605991224E-002	2.000000000000000E+000	-3.7267725E-006	2.3095074E-006
2	1	0	1	1	4.230864893119360E+002	-1.4200163E-001	-1.4218836E-001	1.622175645954688E-002	2.000000000000000E+000	-3.6948095E-006	2.3065450E-006
2	1	0	1	1	4.230884893118855E+002	-1.3700356E-001	-1.3718468E-001	1.674232484624050E-002	2.000000000000000E+000	-3.6617944E-006	2.2967904E-006
2	1	0	1	1	4.230904893118350E+002	-1.3200545E-001	-1.3217820E-001	1.715188457334683E-002	2.000000000000000E+000	-3.6278548E-006	2.2671052E-006
2	1	0	1	1	4.230924893117844E+002	-1.2700737E-001	-1.2717767E-001	1.758901129667512E-002	2.000000000000000E+000	-3.5930798E-006	2.2369295E-006
2	1	0	1	1	4.230944893117339E+002	-1.2200925E-001	-1.2217079E-001	1.792654874609273E-002	2.000000000000000E+000	-3.5575199E-006	2.1901005E-006
2	1	0	1	1	4.230964893116834E+002	-1.1701117E-001	-1.1716922E-001	1.827167248019473E-002	2.000000000000000E+000	-3.5212877E-006	2.1408775E-006
2	1	0	1	1	4.230984893116329E+002	-1.1201307E-001	-1.1217548E-001	1.846707669655090E-002	2.000000000000000E+000	-3.4845264E-006	2.0715531E-006
2	1	0	1	1	4.231004893115824E+002	-1.0701498E-001	-1.0716520E-001	1.860132998505533E-002	2.000000000000000E+000	-3.4474569E-006	1.9934153E-006
2	1	0	1	1	4.231024893115318E+002	-1.0201689E-001	-1.0219478E-001	1.871286867208258E-002	2.000000000000000E+000	-3.4101313E-006	1.9123574E-006
2	1	0	1	1	4.231044893114813E+002	-9.7018793E-002	-9.7200610E-002	1.874912242581356E-002	2.000000000000000E+000	-3.3726601E-006	1.8224262E-006
2	1	0	1	1	4.231064893114308E+002	-9.2020705E-002	-9.2161939E-002	1.877276894932345E-002	2.000000000000000E+000	-3.3351453E-006	1.7301347E-006
2	1	0	1	1	4.231084893113803E+002	-8.7022610E-002	-8.7171383E-002	1.859134980602704E-002	2.000000000000000E+000	-3.2977866E-006	1.6206337E-006
2	1	0	1	1	4.231104893113297E+002	-8.2024515E-002	-8.2209021E-002	1.847890106627242E-002	2.000000000000000E+000	-3.2607315E-006	1.5191324E-006
2	1	0	1	1	4.231124893112792E+002	-7.7026419E-002	-7.7211246E-002	1.830727135428684E-002	2.000000000000000E+000	-3.2239589E-006	1.4135272E-006
2	1	0	1	1	4.231144893112287E+002	-7.2028317E-002	-7.2191007E-002	1.806626897592251E-002	2.000000000000000E+000	-3.1876132E-006	1.3042221E-006
2	1	0	1	1	4.231164893111782E+002	-6.7030229E-002	-6.7198113E-002	1.772122904731077E-002	2.000000000000000E+000	-3.1518507E-006	1.1908331E-006
2	1	0	1	1	4.231184893111276E+002	-6.2032130E-002	-6.2200986E-002	1.739364962284318E-002	2.000000000000000E+000	-3.1167676E-006	1.0819022E-006
2	1	0	1	1	4.231204893110771E+002	-5.7034038E-002	-5.7222929E-002	1.710081763950361E-002	2.000000000000000E+000	-3.0823101E-006	9.7855889E-007
2	1	0	1	1	4.231224893110266E+002	-5.2035943E-002	-5.2226644E-002	1.674302339597492E-002	2.000000000000000E+000	-3.0485098E-006	8.7443192E-007
2	1	0	1	1	4.231244893109761E+002	-4.7037851E-002	-4.7225062E-002	1.637884930803724E-002	2.000000000000000E+000	-3.0154245E-006	7.7349216E-007
2	1	0	1	1	4.231264893109255E+002	-4.2039756E-002	-4.2218179E-002	1.602404357658498E-002	2.000000000000000E+000	-2.9830635E-006	6.7650592E-007
2	1	0	1	1	4.231284893108750E+002	-3.7041660E-002	-3.7208546E-002	1.573898989307868E-002	2.000000000000000E+000	-2.9513430E-006	5.8562495E-007
2	1	0	1	1	4.231304893108245E+002	-3.2043565E-002	-3.2215014E-002	1.540789166251166E-002	2.000000000000000E+000	-2.9202274E-006	4.9636543E-007
2	1	0	1	1	4.231324893107740E+002	-2.7045470E-002	-2.7190965E-002	1.502695852690933E-002	2.000000000000000E+000	-2.8898262E-006	4.0859749E-007
2	1	0	1	1	4.231344893107234E+002	-2.2047376E-002	-2.2193620E-002	1.470073523442908E-002	2.000000000000000E+000	-2.8601387E-006	3.2626252E-007
2	1	0	1	1	4.231364893106729E+002	-1.7049283E-002	-1.7214084E-002	1.437817717406786E-002	2.000000000000000E+000	-2.8310890E-006	2.4750716E-007
2	1	0	1	1	4.231384893106224E+002	-1.1940120E-002	-1.2120081E-002	1.416957216780346E-002	2.000000000000000E+000	-2.8025745E-006	1.7173636E-007
2	1	0	1	1	4.231404893105719E+002	-6.8864892E-003	-7.0625404E-003	1.389324825464025E-002	2.000000000000000E+000	-2.7745316E-006	9.8121625E-008
2	1	0	1	1	4.231424893105213E+002	-1.8883951E-003	-2.0575656E-003	1.359556521614045E-002	2.000000000000000E+000	-2.7470699E-006	2.7973767E-008
2	1	0	1	1	4.231444893104708E+002	3.1096980E-003	2.9548260E-003	1.337679117932568E-002	2.000000000000000E+000	-2.7201279E-006	3.9526089E-008
2	1	0	1	1	4.231464893104203E+002	8.1077898E-003	7.9697603E-003	1.313718742373265E-002	2.000000000000000E+000	-2.6936316E-006	1.0470023E-007
2	1	0	1	1	4.231484893103698E+002	1.3105881E-002	1.2972401E-002	1.297059989216603E-002	2.000000000000000E+000	-2.6675436E-006	1.6825983E-007
2	1	0	1	1	4.231504893103192E+002	1.8103974E-002	1.7974405E-002	1.275779986361969E-002	2.000000000000000E+000	-2.6418413E-006	2.2931386E-007
2	1	0	1	1	4.231524893102687E+002	2.3102066E-002	2.2940585E-002	1.255453511273821E-002	2.000000000000000E+000	-2.6165449E-006	2.8800838E-007
2	1	0	1	1	4.231544893102182E+002	2.8100159E-002	2.7957426E-002	1.237794741367300E-002	2.000000000000000E+000	-2.5916283E-006	3.4605554E-007
2	1	0	1	1	4.231564893101677E+002	3.3098251E-002	3.2958798E-002	1.220947372409381E-002	2.000000000000000E+000	-2.5670640E-006	4.0240957E-007
2	1	0	1	1	4.231584893101171E+002	3.8096346E-002	3.7949994E-002	1.208861304904632E-002	2.000000000000000E+000	-2.5427860E-006	4.5876280E-007
2	1	0	1	1	4.231604893100666E+002	4.3094434E-002	4.2957511E-002	1.193420943086999E-002	2.000000000000000E+000	-2.5187762E-006	5.1266392E-007
2	1	0	1	1	4.231624893100161E+002	4.8092525E-002	4.7984101E-002	1.176936022966404E-002	2.000000000000000E+000	-2.4950891E-006	5.6474215E-007
2	1	0	1	1	4.231644893099656E+002	5.3090617E-002	5.2954741E-002	1.167159466523218E-002	2.000000000000000E+000	-2.4716585E-006	6.1806628E-007
2	1	0	1	1	4.231664893099151E+002	5.8088712E-002	5.8006130E-002	1.154204601051684E-002	2.000000000000000E+000	-2.4484559E-006	6.6950940E-007
2	1	0	1	1	4.231684893098645E+002	6.3086800E-002	6.2985659E-002	1.142819874823749E-002	2.000000000000000E+000	-2.4254998E-006	7.1981265E-007
2	1	0	1	1	4.231704893098140E+002	6.8084896E-002	6.7956716E-002	1.131574859472390E-002	2.000000000000000E+000	-2.4027731E-006	7.6898112E-007
2	1	0	1	1	4.231724893097635E+002	7.3082998E-002	7.2966777E-002	1.120836440673478E-002	2.000000000000000E+000	-2.3802602E-006	8.1783821E-007
2	1	0	1	1	4.231744893097130E+002	7.8081071E-002	7.7947579E-002	1.111697596408910E-002	2.000000000000000E+000	-2.3579466E-006	8.6654137E-007
2	1	0	1	1	4.231764893096624E+002	8.3079174E-002	8.2941107E-002	1.101003619361210E-002	2.000000000000000E+000	-2.3358311E-006	9.1318458E-007
2	1	0	1	1	4.231784893096119E+002	8.8077269E-002	8.7925948E-002	1.092831044782848E-002	2.000000000000000E+000	-2.3139007E-006	9.6088206E-007
2	1	0	1	1	4.231804893095614E+002	9.3075350E-002	9.2943847E-002	1.086251905609164E-002	2.000000000000000E+000	-2.2921170E-006	1.0096043E-006
2	1	0	1	1	4.231822893095159E+002	9.7573653E-002	9.7445197E-002	1.078215710029846E-002	2.000000000000000E+000	-2.2726447E-006	1.0506694E-006
2	1	0	1	1	4.231831893094932E+002	9.9906117E-002	9.9803142E-002	1.078575290739536E-002	2.000000000000000E+000	-2.2629465E-006	1.0764520E-006
2	1	0	0	1	4.231833893094881E+002	1.0023932E-001	1.0015035E-001	1.068277563899755E-002	2.000000000000000E+000	-2.2608099E-006	1.0698836E-006
2	0	0	1	1	4.231835893094831E+002	9.9906117E-002	9.9818408E-002	1.014309562742710E-002	2.000000000000000E+000	-2.2587813E-006	1.0124677E-006
2	0	0	0	1	4.231846893094553E+002	9.7073823E-002	9.7001970E-002	7.601976428910973E-003	2.000000000000000E+000	-2.2502104E-006	7.3740671E-007
2	0	0	0	1	4.231866893094048E+002	9.2075743E-002	9.1988929E-002	5.179325480841934E-003	2.000000000000000E+000	-2.2377528E-006	4.7644059E-007
2	0	0	0	1	4.231886893093542E+002	8.7077655E-002	8.6973794E-002	3.948803529611831E-003	2.000000000000000E+000	-2.2287720E-006	3.4344242E-007
2	0	0	0	1	4.231906893093037E+002	8.2079545E-002	8.1985138E-002	3.164137246434011E-003	2.000000000000000E+000	-2.2217448E-006	2.5941222E-007
2	0	0	0	1	4.231926893092532E+002	7.7081457E-002	7.6997757E-002	2.580426028089278E-003	2.000000000000000E+000	-2.2160648E-006	1.9868702E-007
2	0	0	0	1	4.231946893092027E+002	7.2083369E-002	7.1985580E-002	2.108147564715387E-003	2.000000000000000E+000	-2.2114277E-006	1.5175623E-007
2	0	0	0	1	4.231966893091521E+002	6.7085274E-002	6.6999905E-002	1.711682554413427E-003	2.000000000000000E+000	-2.2076490E-006	1.1468257E-007
2	0	0	0	1	4.231986893091016E+002	6.2087189E-002	6.2013373E-002	1.366431210448760E-003	2.000000000000000E+000	-2.2046045E-006	8.4737010E-008
2	0	0	0	1	4.232006893090511E+002	5.7089094E-002	5.7030447E-002	1.057031233813175E-003	2.000000000000000E+000	-2.2022134E-006	6.0282964E-008
2	0	0	0	1	4.232026893090006E+002	5.2090999E-002	5.2017629E-002	7.618703512106443E-004	2.000000000000000E+000	-2.2004260E-006	3.9630688E-008
2	0	0	0	1	4.232046893089500E+002	4.7092911E-002	4.7014777E-002	5.074979372099945E-004	2.000000000000000E+000	-2.1991852E-006	2.3859902E-008
2	0	0	0	1	4.232066893088995E+002	4.2094816E-002	4.1999415E-002	2.523204526438698E-004	2.000000000000000E+000	-2.1984481E-006	1.0597311E-008
2	0	0	0	1	4.232086893088490E+002	3.7096720E-002	3.6989991E-002	3.837643220746157E-005	2.000000000000000E+000	-2.1981789E-006	1.4195438E-009
2	0	0	0	1	4.232106893087985E+002	3.2098632E-002	3.1991594E-002	-1.770720157294489E-004	2.000000000000000E+000	-2.1983392E-006	5.6648162E-009
2	0	0	0	1	4.232126893087479E+002	2.7100539E-002	2.6979625E-002	-3.697848061329340E-004	2.000000000000000E+000	-2.1989079E-006	9.9766551E-009
2	0	0	0	1	4.232146893086974E+002	2.2102445E-002	2.2005176E-002	-5.584081087148564E-004	2.000000000000000E+000	-2.1998551E-006	1.2287869E-008
2	0	0	0	1	4.232166893086469E+002	1.7104354E-002	1.7016102E-002	-7.355682559667294E-004	2.000000000000000E+000	-2.2011693E-006	1.2516504E-008
2	0	0	0	1	4.232186893085964E+002	1.2106263E-002	1.2007949E-002	-9.163093359979418E-004	2.000000000000000E+000	-2.2028373E-006	1.1002996E-008
2	0	0	0	1	4.232206893085458E+002	7.1081715E-003	7.0040370E-003	-1.085036326470700E-003	2.000000000000000E+000	-2.2048584E-006	7.5996347E-009
2	0	0	0	1	4.232226893084953E+002	2.1100796E-003	1.9679060E-003	-1.253848033911709E-003	2.000000000000000E+000	-2.2072140E-006	2.4674551E-009
2	0	0	0	1	4.232246893084448E+002	-2.8880138E-003	-3.0302841E-003	-1.405941848411710E-003	2.000000000000000E+000	-2.2098920E-006	4.2604031E-009
2	0	0	0	1	4.232266893083943E+002	-7.8861080E-003	-8.0119418E-003	-1.562697046135021E-003	2.000000000000000E+000	-2.2128734E-006	1.2520238E-008
2	0	0	0	1	4.232286893083437E+002	-1.2976760E-002	-1.3120145E-002	-1.764181964063024E-003	2.000000000000000E+000	-2.2162219E-006	2.3146322E-008
2	0	0	0	1	4.232306893082932E+002	-1.8048901E-002	-1.8181713E-002	-1.894175642039239E-003	2.000000000000000E+000	-2.2198922E-006	3.4439360E-008
2	0	0	0	1	4.232326893082427E+002	-2.3046995E-002	-2.3171637E-002	-2.015503181610256E-003	2.000000000000000E+000	-2.2238128E-006	4.6702507E-008
2	0	0	0	1	4.232346893081922E+002	-2.8045088E-002	-2.8165590E-002	-2.154142081457797E-003	2.000000000000000E+000	-2.2279946E-006	6.0672683E-008
2	0	0	0	1	4.232366893081416E+002	-3.3043183E-002	-3.3180527E-002	-2.299391794091818E-003	2.000000000000000E+000	-2.2324646E-006	7.6295031E-008
2	0	0	0	1	4.232386893080911E+002	-3.8041279E-002	-3.8166635E-002	-2.439365467908917E-003	2.000000000000000E+000	-2.2372155E-006	9.3102372E-008
2	0	0	0	1	4.232406893080406E+002	-4.3039370E-002	-4.3191113E-002	-2.593938236916272E-003	2.000000000000000E+000	-2.2422644E-006	1.1203508E-007
2	0	0	0	1	4.232426893079901E+002	-4.8037469E-002	-4.8181880E-002	-2.721050245529315E-003	2.000000000000000E+000	-2.2475940E-006	1.3110532E-007
2	0	0	0	1	4.232446893079396E+002	-5.3035565E-002	-5.3197030E-002	-2.873207393753956E-003	2.000000000000000E+000	-2.2532033E-006	1.5284610E-007
2	0	0	0	1	4.232466893078890E+002	-5.8033653E-002	-5.8179751E-002	-3.013202506634928E-003	2.000000000000000E+000	-2.2591034E-006	1.7530738E-007
2	0	0	0	1	4.232486893078385E+002	-6.3031748E-002	-6.3169248E-002	-3.159172562845928E-003	2.000000000000000E+000	-2.2652891E-006	1.9956255E-007
2	0	0	0	1	4.232506893077880E+002	-6.8029851E-002	-6.8192028E-002	-3.313512360263206E-003	2.000000000000000E+000	-2.2717766E-006	2.2595512E-007
2	0	0	0	1	4.232526893077375E+002	-7.3027939E-002	-7.3164150E-002	-3.470013258973073E-003	2.000000000000000E+000	-2.2785782E-006	2.5388056E-007
2	0	0	0	1	4.232546893076869E+002	-7.8026034E-002	-7.8192227E-002	-3.637511385123721E-003	2.000000000000000E+000	-2.2857021E-006	2.8442511E-007
2	0	0	0	1	4.232566893076364E+002	-8.3024137E-002	-8.3163708E-002	-3.812064959978066E-003	2.000000000000000E+000	-2.2931674E-006	3.1702547E-007
2	0	0	0	1	4.232586893075859E+002	-8.8022225E-002	-8.8151507E-002	-3.984691105314488E-003	2.000000000000000E+000	-2.3009786E-006	3.5125652E-007
2	0	0	0	1	4.232606893075354E+002	-9.3020320E-002	-9.3146108E-002	-4.185095432452111E-003	2.000000000000000E+000	-2.3091695E-006	3.8982535E-007
2	0	0	0	1	4.232626893074848E+002	-9.8018415E-002	-9.8153822E-002	-4.397428781329718E-003	2.000000000000000E+000	-2.3177708E-006	4.3162444E-007
2	0	0	0	1	4.232646893074343E+002	-1.0301651E-001	-1.0314270E-001	-4.612093486634369E-003	2.000000000000000E+000	-2.3268037E-006	4.7570379E-007
2	0	0	0	1	4.232666893073838E+002	-1.0801459E-001	-1.0811800E-001	-4.840488214995275E-003	2.000000000000000E+000	-2.3362779E-006	5.2334389E-007
2	0	0	0	1	4.232686893073333E+002	-1.1301269E-001	-1.1311936E-001	-5.095877788133099E-003	2.000000000000000E+000	-2.3462392E-006	5.7644246E-007
2	0	0	0	1	4.232706893072827E+002	-1.1801079E-001	-1.1813834E-001	-5.383071869295618E-003	2.000000000000000E+000	-2.3567475E-006	6.3594717E-007
2	0	0	0	1	4.232726893072322E+002	-1.2300888E-001	-1.2311850E-001	-5.681220393348167E-003	2.000000000000000E+000	-2.3678401E-006	6.9946333E-007
2	0	0	0	1	4.232746893071817E+002	-1.2800698E-001	-1.2814742E-001	-6.026747274316027E-003	2.000000000000000E+000	-2.3795790E-006	7.7231215E-007
2	0	0	0	1	4.232766893071312E+002	-1.3300508E-001	-1.3313608E-001	-6.360429253113087E-003	2.000000000000000E+000	-2.3920015E-006	8.4680261E-007
2	0	0	0	1	4.232786893070806E+002	-1.3800317E-001	-1.3814360E-001	-6.755347843762920E-003	2.000000000000000E+000	-2.4051576E-006	9.3320807E-007
2	0	0	0	1	4.232806893070301E+002	-1.4300126E-001	-1.4314793E-001	-7.151558722095303E-003	2.000000000000000E+000	-2.4191022E-006	1.0237309E-006
2	0	0	0	1	4.232826893069796E+002	-1.4799935E-001	-1.4813513E-001	-7.575441934022834E-003	2.000000000000000E+000	-2.4338733E-006	1.1221890E-006
2	0	0	0	1	4.232846893069291E+002	-1.5299745E-001	-1.5313625E-001	-8.040347102299478E-003	2.000000000000000E+000	-2.4495323E-006	1.2312686E-006
2	0	0	0	1	4.232866893068785E+002	-1.5799555E-001	-1.5813829E-001	-8.513663861170542E-003	2.000000000000000E+000	-2.4661324E-006	1.3463363E-006
2	0	0	0	1	4.232886893068280E+002	-1.6299365E-001	-1.6314621E-001	-9.026709886913741E-003	2.000000000000000E+000	-2.4837275E-006	1.4726735E-006
2	0	0	0	1	4.232906893067775E+002	-1.6799173E-001	-1.6815078E-001	-9.550223471705949E-003	2.000000000000000E+000	-2.5023503E-006	1.6058775E-006
2	0	0	0	1	4.232926893067270E+002	-1.7298983E-001	-1.7313923E-001	-1.009577339714773E-002	2.000000000000000E+000	-2.5220479E-006	1.7479745E-006
2	0	0	0	1	4.232946893066764E+002	-1.7798793E-001	-1.7813973E-001	-1.066950505163630E-002	2.000000000000000E+000	-2.5428687E-006	1.9006627E-006
2	0	0	0	1	4.232966893066259E+002	-1.8298602E-001	-1.8314937E-001	-1.122664444119437E-002	2.000000000000000E+000	-2.5648262E-006	2.0561529E-006
2	0	0	0	1	4.232986893065754E+002	-1.8798412E-001	-1.8815647E-001	-1.182279369054920E-002	2.000000000000000E+000	-2.5879306E-006	2.2245351E-006
2	0	0	0	1	4.233006893065249E+002	-1.9298220E-001	-1.9313069E-001	-1.240402523399098E-002	2.000000000000000E+000	-2.6122150E-006	2.3955979E-006
2	0	0	0	1	4.233026893064743E+002	-1.9798030E-001	-1.9809859E-001	-1.300025925653849E-002	2.000000000000000E+000	-2.6376856E-006	2.5753329E-006
2	0	0	0	1	4.233046893064238E+002	-2.0297839E-001	-2.0311436E-001	-1.363933622815240E-002	2.000000000000000E+000	-2.6643845E-006	2.7703450E-006
2	0	0	0	1	4.233066893063733E+002	-2.0797649E-001	-2.0812231E-001	-1.422082240767644E-002	2.000000000000000E+000	-2.6923062E-006	2.9596704E-006
2	0	0	0	1	4.233086893063228E+002	-2.1297459E-001	-2.1313532E-001	-1.479112137915056E-002	2.000000000000000E+000	-2.7213755E-006	3.1525103E-006
2	0	0	0	1	4.233106893062723E+002	-2.1797268E-001	-2.1813037E-001	-1.536078426943274E-002	2.000000000000000E+000	-2.7515885E-006	3.3506535E-006
2	0	0	0	1	4.233126893062217E+002	-2.2297078E-001	-2.2313593E-001	-1.591349574826174E-002	2.000000000000000E+000	-2.7829110E-006	3.5508726E-006
2	0	0	0	1	4.233146893061712E+002	-2.2796887E-001	-2.2812799E-001	-1.643940278639397E-002	2.000000000000000E+000	-2.8153208E-006	3.7502878E-006
2	0	0	0	1	4.233166893061207E+002	-2.3296696E-001	-2.3313232E-001	-1.698969959842445E-002	2.000000000000000E+000	-2.8488046E-006	3.9608481E-006
2	0	0	0	1	4.233186893060702E+002	-2.3796506E-001	-2.3812585E-001	-1.745091739798628E-002	2.000000000000000E+000	-2.8832858E-006	4.1555145E-006
2	0	0	0	1	4.233206893060196E+002	-2.4296317E-001	-2.4310879E-001	-1.787321207565484E-002	2.000000000000000E+000	-2.9186558E-006	4.3451350E-006
2	0	0	0	1	4.233226893059691E+002	-2.4796124E-001	-2.4811505E-001	-1.830991451768360E-002	2.000000000000000E+000	-2.9548919E-006	4.5429651E-006
2	0	0	0	1	4.233246893059186E+002	-2.5295934E-001	-2.5312638E-001	-1.868497908071731E-002	2.000000000000000E+000	-2.9919086E-006	4.7296612E-006
2	0	0	0	1	4.233266893058681E+002	-2.5795743E-001	-2.5811034E-001	-1.907182360688847E-002	2.000000000000000E+000	-3.0297006E-006	4.9226351E-006
2	0	0	0	1	4.233286893058175E+002	-2.6295552E-001	-2.6309988E-001	-1.938353389414260E-002	2.000000000000000E+000	-3.0681872E-006	5.0998055E-006
2	0	0	0	1	4.233306893057670E+002	-2.6795363E-001	-2.6810652E-001	-1.972264103177518E-002	2.000000000000000E+000	-3.1073266E-006	5.2877685E-006
2	0	0	0	1	4.233326893057165E+002	-2.7295175E-001	-2.7310812E-001	-2.001066180552380E-002	2.000000000000000E+000	-3.1470820E-006	5.4650745E-006
2	0	0	0	1	4.233346893056660E+002	-2.7794981E-001	-2.7808151E-001	-2.015226626503536E-002	2.000000000000000E+000	-3.1872601E-006	5.6039726E-006
2	0	0	0	1	4.233366893056154E+002	-2.8294790E-001	-2.8307143E-001	-2.030546228504838E-002	2.000000000000000E+000	-3.2277421E-006	5.7478960E-006
2	0	0	0	1	4.233386893055649E+002	-2.8794599E-001	-2.8808489E-001	-2.046018230774083E-002	2.000000000000000E+000	-3.2685221E-006	5.8942696E-006
2	0	0	0	1	4.233406893055144E+002	-2.9294410E-001	-2.9307523E-001	-2.057576739510594E-002	2.000000000000000E+000	-3.3095732E-006	6.0302477E-006
2	0	0	0	1	4.233426893054639E+002	-2.9794219E-001	-2.9808807E-001	-2.059598171803778E-002	2.000000000000000E+000	-3.3507522E-006	6.1394167E-006
2	0	0	0	1	4.233446893054133E+002	-3.0294025E-001	-3.0310065E-001	-2.058803729313591E-002	2.000000000000000E+000	-3.3919443E-006	6.2402473E-006
2	0	0	0	1	4.233466893053628E+002	-3.0793840E-001	-3.0810496E-001	-2.061293430597286E-002	2.000000000000000E+000	-3.4331579E-006	6.3509474E-006
2	0	0	0	1	4.233486893053123E+002	-3.1293648E-001	-3.1310064E-001	-2.048323792243745E-002	2.000000000000000E+000	-3.4742493E-006	6.4133146E-006
2	0	0	0	1	4.233506893052618E+002	-3.1793454E-001	-3.1810883E-001	-2.036712083079495E-002	2.000000000000000E+000	-3.5150779E-006	6.4789610E-006
2	0	0	0	1	4.233526893052112E+002	-3.2293269E-001	-3.2308939E-001	-2.026636789256975E-002	2.000000000000000E+000	-3.5556998E-006	6.5478484E-006
2	0	0	0	1	4.233546893051607E+002	-3.2793075E-001	-3.2808805E-001	-2.008622090377482E-002	2.000000000000000E+000	-3.5960365E-006	6.5900490E-006
2	0	0	0	1	4.233566893051102E+002	-3.3292884E-001	-3.3309513E-001	-1.990908138395753E-002	2.000000000000000E+000	-3.6360143E-006	6.6316179E-006
2	0	0	0	1	4.233586893050597E+002	-3.3792698E-001	-3.3809546E-001	-1.973016214025036E-002	2.000000000000000E+000	-3.6756380E-006	6.6706780E-006
2	0	0	0	1	4.233606893050091E+002	-3.4292504E-001	-3.4313515E-001	-1.953956837840246E-002	2.000000000000000E+000	-3.7148936E-006	6.7047126E-006
2	0	0	0	1	4.233626893049586E+002	-3.4792310E-001	-3.4808734E-001	-1.930719035751990E-002	2.000000000000000E+000	-3.7537186E-006	6.7205888E-006
2	0	0	0	1	4.233646893049081E+002	-3.5292125E-001	-3.5311010E-001	-1.913221224114947E-002	2.000000000000000E+000	-3.7921488E-006	6.7557776E-006
2	0	0	0	1	4.233666893048576E+002	-3.5791934E-001	-3.5810703E-001	-1.888082767497201E-002	2.000000000000000E+000	-3.8301350E-006	6.7613573E-006
2	0	0	0	1	4.233686893048070E+002	-3.6291739E-001	-3.6310548E-001	-1.866249697660449E-002	2.000000000000000E+000	-3.8676517E-006	6.7764549E-006
2	0	0	0	1	4.233706893047565E+002	-3.6791554E-001	-3.6808434E-001	-1.845217650305936E-002	2.000000000000000E+000	-3.9047509E-006	6.7919573E-006
2	0	0	0	1	4.233726893047060E+002	-3.7291363E-001	-3.7309629E-001	-1.822382309385118E-002	2.000000000000000E+000	-3.9414058E-006	6.7992405E-006
2	0	0	0	1	4.233746893046555E+002	-3.7791169E-001	-3.7809765E-001	-1.804734171006814E-002	2.000000000000000E+000	-3.9776583E-006	6.8236577E-006
2	0	0	0	1	4.233766893046050E+002	-3.8290983E-001	-3.8309631E-001	-1.789800250238227E-002	2.000000000000000E+000	-4.0135919E-006	6.8566587E-006
2	0	0	0	1	4.233786893045544E+002	-3.8790792E-001	-3.8812438E-001	-1.771493196429219E-002	2.000000000000000E+000	-4.0491946E-006	6.8755971E-006
2	0	0	0	1	4.233806893045039E+002	-3.9290598E-001	-3.9312851E-001	-1.755340806711400E-002	2.000000000000000E+000	-4.0844488E-006	6.9007451E-006
2	0	0	0	1	4.233826893044534E+002	-3.9790407E-001	-3.9811081E-001	-1.739453400174773E-002	2.000000000000000E+000	-4.1193798E-006	6.9249518E-006
2	0	0	0	1	4.233846893044029E+002	-4.0290216E-001	-4.0308586E-001	-1.724322365589614E-002	2.000000000000000E+000	-4.1540111E-006	6.9504995E-006
2	0	0	0	1	4.233866893043523E+002	-4.0790027E-001	-4.0808639E-001	-1.708812189725811E-002	2.000000000000000E+000	-4.1883227E-006	6.9734301E-006
2	0	0	0	1	4.233886893043018E+002	-4.1289836E-001	-4.1309309E-001	-1.698455169753288E-002	2.000000000000000E+000	-4.2223724E-006	7.0162009E-006
2	0	0	0	1	4.233906893042513E+002	-4.1789648E-001	-4.1809043E-001	-1.683995880800165E-002	2.000000000000000E+000	-4.2561874E-006	7.0406259E-006
2	0	0	0	1	4.233926893042008E+002	-4.2289454E-001	-4.2308968E-001	-1.675355050469479E-002	2.000000000000000E+000	-4.2897582E-006	7.0882543E-006
2	0	0	0	1	4.233946893041502E+002	-4.2789263E-001	-4.2807323E-001	-1.667104078620063E-002	2.000000000000000E+000	-4.3231707E-006	7.1364261E-006
2	0	0	0	1	4.233966893040997E+002	-4.3289074E-001	-4.3306804E-001	-1.653344009456399E-002	2.000000000000000E+000	-4.3563705E-006	7.1601044E-006
2	0	0	0	1	4.233986893040492E+002	-4.3788883E-001	-4.3807256E-001	-1.646264809258152E-002	2.000000000000000E+000	-4.3893556E-006	7.2118346E-006
2	0	0	0	1	4.234006893039987E+002	-4.4288692E-001	-4.4306293E-001	-1.640634949378889E-002	2.000000000000000E+000	-4.4222202E-006	7.2690455E-006
2	0	0	0	1	4.234026893039481E+002	-4.4792205E-001	-4.4811368E-001	-1.638058356911645E-002	2.000000000000000E+000	-4.4549975E-006	7.3403635E-006
2	0	0	0	1	4.234046893038976E+002	-4.5304969E-001	-4.5320579E-001	-1.633731448358347E-002	2.000000000000000E+000	-4.4877261E-006	7.4041654E-006
2	0	0	0	1	4.234066893038471E+002	-4.5804781E-001	-4.5821479E-001	-1.622537516656546E-002	2.000000000000000E+000	-4.5202773E-006	7.4347067E-006
2	0	0	0	1	4.234086893037966E+002	-4.6304590E-001	-4.6319664E-001	-1.615998685944448E-002	2.000000000000000E+000	-4.5526572E-006	7.4852514E-006
2	0	0	0	1	4.234106893037460E+002	-4.6804398E-001	-4.6824378E-001	-1.611584997610609E-002	2.000000000000000E+000	-4.5849324E-006	7.5461467E-006
2	0	0	0	1	4.234126893036955E+002	-4.7304210E-001	-4.7323051E-001	-1.609302861793867E-002	2.000000000000000E+000	-4.6171353E-006	7.6157121E-006
2	0	0	0	1	4.234146893036450E+002	-4.7804019E-001	-4.7822538E-001	-1.605679604270138E-002	2.000000000000000E+000	-4.6492787E-006	7.6787674E-006
2	0	0	0	1	4.234166893035945E+002	-4.8303828E-001	-4.8324347E-001	-1.603662384837257E-002	2.000000000000000E+000	-4.6813693E-006	7.7495934E-006
2	0	0	0	1	4.234186893035439E+002	-4.8803639E-001	-4.8822725E-001	-1.601602895991361E-002	2.000000000000000E+000	-4.7134204E-006	7.8194616E-006
2	0	0	0	1	4.234206893034934E+002	-4.9303448E-001	-4.9320999E-001	-1.599551916721487E-002	2.000000000000000E+000	-4.7454396E-006	7.8891499E-006
2	0	0	0	1	4.234226893034429E+002	-4.9803257E-001	-4.9821198E-001	-1.601624132429909E-002	2.000000000000000E+000	-4.7774433E-006	7.9794836E-006
2	0	0	0	1	4.234246893033924E+002	-5.0303072E-001	-5.0323009E-001	-1.597083217368184E-002	2.000000000000000E+000	-4.8094248E-006	8.0370037E-006
2	0	0	0	1	4.234266893033418E+002	-5.0802875E-001	-5.0823081E-001	-1.595773747996851E-002	2.000000000000000E+000	-4.8413526E-006	8.1102135E-006
2	0	0	0	1	4.234286893032913E+002	-5.1302683E-001	-5.1322651E-001	-1.599899259862370E-002	2.000000000000000E+000	-4.8733191E-006	8.2111073E-006
2	0	0	0	1	4.234306893032408E+002	-5.1802492E-001	-5.1820457E-001	-1.599960809795040E-002	2.000000000000000E+000	-4.9053192E-006	8.2910701E-006
2	0	0	0	1	4.234326893031903E+002	-5.2302307E-001	-5.2321821E-001	-1.600365356838056E-002	2.000000000000000E+000	-4.9373280E-006	8.3734030E-006
2	0	0	0	1	4.234346893031397E+002	-5.2802110E-001	-5.2821022E-001	-1.601193994853625E-002	2.000000000000000E+000	-4.9693444E-006	8.4576704E-006
2	0	0	0	1	4.234366893030892E+002	-5.3301919E-001	-5.3319210E-001	-1.605213440497105E-002	2.000000000000000E+000	-5.0014187E-006	8.5588708E-006
2	0	0	0	1	4.234386893030387E+002	-5.3801733E-001	-5.3820109E-001	-1.609769081874727E-002	2.000000000000000E+000	-5.0335711E-006	8.6637947E-006
2	0	0	0	1	4.234406893029882E+002	-5.4301548E-001	-5.4317665E-001	-1.611777781383551E-002	2.000000000000000E+000	-5.0657854E-006	8.7548005E-006
2	0	0	0	1	4.234426893029377E+002	-5.4801357E-001	-5.4819965E-001	-1.616104486472771E-002	2.000000000000000E+000	-5.0980698E-006	8.8594788E-006
2	0	0	0	1	4.234446893028871E+002	-5.5301160E-001	-5.5319381E-001	-1.619520233907673E-002	2.000000000000000E+000	-5.1304305E-006	8.9590858E-006
2	0	0	0	1	4.234466893028366E+002	-5.5800968E-001	-5.5820471E-001	-1.625234785549556E-002	2.000000000000000E+000	-5.1628849E-006	9.0721369E-006
2	0	0	0	1	4.234486893027861E+002	-5.6300777E-001	-5.6320947E-001	-1.636115251272302E-002	2.000000000000000E+000	-5.1954953E-006	9.2147557E-006
2	0	0	0	1	4.234506893027356E+002	-5.6800592E-001	-5.6821042E-001	-1.642084269001814E-002	2.000000000000000E+000	-5.2282912E-006	9.3304943E-006
2	0	0	0	1	4.234526893026850E+002	-5.7300401E-001	-5.7320762E-001	-1.650493995596966E-002	2.000000000000000E+000	-5.2612195E-006	9.4607576E-006
2	0	0	0	1	4.234546893026345E+002	-5.7800210E-001	-5.7818562E-001	-1.653587622745865E-002	2.000000000000000E+000	-5.2942623E-006	9.5608057E-006
2	0	0	0	1	4.234566893025840E+002	-5.8300018E-001	-5.8319247E-001	-1.665957665277853E-002	2.000000000000000E+000	-5.3274721E-006	9.7157399E-006
2	0	0	0	1	4.234586893025335E+002	-5.8799827E-001	-5.8818978E-001	-1.680362006199077E-002	2.000000000000000E+000	-5.3609488E-006	9.8837172E-006
2	0	0	0	1	4.234606893024829E+002	-5.9299636E-001	-5.9317786E-001	-1.690026215166854E-002	2.000000000000000E+000	-5.3946619E-006	1.0024862E-005
2	0	0	0	1	4.234624893024375E+002	-5.9749466E-001	-5.9767812E-001	-1.698589294028346E-002	2.000000000000000E+000	-5.4251673E-006	1.0152096E-005
2	0	0	0	1	4.234633893024147E+002	-5.9982693E-001	-5.9995490E-001	-1.711325161159039E-002	2.000000000000000E+000	-5.4404777E-006	1.0267179E-005
2	0	0	1	1	4.234635893024097E+002	-6.0016018E-001	-6.0030973E-001	-1.705642417073250E-002	2.000000000000000E+000	-5.4438888E-006	1.0239138E-005