EC-Lab ASCII FILE
Nb header lines : 53                          

Cyclic Voltammetry

Run on channel : 1 (SN 0696)
User : 
Electrode connection : standard
Ewe ctrl range : min = -10.00 V, max = 10.00 V
Ewe,I filtering : 50 kHz
Channel : Grounded
Acquisition started on : 05/17/2017 12:14:48
Saved on :
	File : 100 uM MB 10mM PB Second ITO_08_CV_C01.mpr
	Directory : \\userfs\st659\w2k\EC-Lab\Data\ITO Characterisation 17-5-17\
	Host : 144.32.136.43
Device : SP-300 (SN 0182)
Address : USB
EC-Lab for windows v10.44 (software)
Internet server v10.44 (firmware)
Command interpretor v10.44 (firmware)
Electrode material : 
Initial state : 
Electrolyte : 
Comments : 
Cable : standard
Electrode surface area : 0.001 cm²
Characteristic mass : 0.001 g
Equivalent Weight : 0.000 g/eq.
Density : 0.000 g/cm3
Ei (V)              0.000               
vs.                 Eoc                 
dE/dt               5000.000            
dE/dt unit          mV/s                
E1 (V)              0.100               
vs.                 Ref                 
Step percent        50                  
N                   10                  
E range min (V)     -10.000             
E range max (V)     10.000              
I Range             Auto                
I Range min         Unset               
I Range max         Unset               
I Range init        Unset               
Bandwidth           8                   
E2 (V)              -0.600              
vs.                 Ref                 
nc cycles           2                   
Reverse Scan        1                   
Ef (V)              0.000               
vs.                 Eoc                 

mode	ox/red	error	control changes	counter inc.	time/s	control/V	Ewe/V	<I>/mA	cycle number	(Q-Qo)/C	P/W
2	1	0	0	1	4.247397892701701E+002	-5.9916055E-001	-5.9947038E-001	-3.463360667228699E-002	2.000000000000000E+000	-3.8171447E-006	2.0761821E-005
2	1	0	1	1	4.247408892701424E+002	-5.9366274E-001	-5.9394276E-001	-2.899243129609705E-002	2.000000000000000E+000	-3.8495177E-006	1.7219845E-005
2	1	0	1	1	4.247428892700918E+002	-5.8366662E-001	-5.8391845E-001	-2.182928186650523E-002	2.000000000000000E+000	-3.8994995E-006	1.2746520E-005
2	1	0	1	1	4.247448892700413E+002	-5.7367039E-001	-5.7392848E-001	-1.695592526124931E-002	2.000000000000000E+000	-3.9377387E-006	9.7314887E-006
2	1	0	1	1	4.247468892699908E+002	-5.6367421E-001	-5.6391358E-001	-1.334574383993936E-002	2.000000000000000E+000	-3.9676488E-006	7.5258463E-006
2	1	0	1	1	4.247488892699403E+002	-5.5367804E-001	-5.5391979E-001	-1.055860222812854E-002	2.000000000000000E+000	-3.9912584E-006	5.8486189E-006
2	1	0	1	1	4.247508892698897E+002	-5.4368180E-001	-5.4388738E-001	-8.286900959117494E-003	2.000000000000000E+000	-4.0098544E-006	4.5071406E-006
2	1	0	1	1	4.247528892698392E+002	-5.3368568E-001	-5.3388953E-001	-6.448892942696849E-003	2.000000000000000E+000	-4.0243931E-006	3.4429963E-006
2	1	0	1	1	4.247548892697887E+002	-5.2368945E-001	-5.2390391E-001	-4.932998788768184E-003	2.000000000000000E+000	-4.0356140E-006	2.5844174E-006
2	1	0	1	1	4.247568892697382E+002	-5.1369327E-001	-5.1391584E-001	-3.647300536865947E-003	2.000000000000000E+000	-4.0440559E-006	1.8744055E-006
2	1	0	1	1	4.247588892696876E+002	-5.0369710E-001	-5.0392008E-001	-2.551751234300858E-003	2.000000000000000E+000	-4.0501386E-006	1.2858786E-006
2	1	0	1	1	4.247608892696371E+002	-4.9370089E-001	-4.9392068E-001	-1.600158992990450E-003	2.000000000000000E+000	-4.0541900E-006	7.9035163E-007
2	1	0	1	1	4.247628892695866E+002	-4.8370466E-001	-4.8390946E-001	-7.785605003189418E-004	2.000000000000000E+000	-4.0564837E-006	3.7675278E-007
2	1	0	1	1	4.247648892695361E+002	-4.7370848E-001	-4.7393298E-001	-4.144204314589686E-005	2.000000000000000E+000	-4.0572290E-006	1.9640751E-008
2	1	0	1	1	4.247668892694855E+002	-4.6371230E-001	-4.6391433E-001	6.187183470905844E-004	2.000000000000000E+000	-4.0565878E-006	2.8703232E-007
2	1	0	1	1	4.247688892694350E+002	-4.5371613E-001	-4.5390272E-001	1.208828370888825E-003	2.000000000000000E+000	-4.0546984E-006	5.4869048E-007
2	1	0	1	1	4.247708892693845E+002	-4.4371995E-001	-4.4393709E-001	1.726006327190693E-003	2.000000000000000E+000	-4.0517079E-006	7.6623826E-007
2	1	0	1	1	4.247728892693340E+002	-4.3372375E-001	-4.3394089E-001	2.222503840003914E-003	2.000000000000000E+000	-4.0477130E-006	9.6443534E-007
2	1	0	1	1	4.247748892692834E+002	-4.2372760E-001	-4.2395493E-001	2.677534585927788E-003	2.000000000000000E+000	-4.0427681E-006	1.1351540E-006
2	1	0	1	1	4.247768892692329E+002	-4.1373140E-001	-4.1395411E-001	3.102053804822286E-003	2.000000000000000E+000	-4.0369496E-006	1.2841080E-006
2	1	0	1	1	4.247788892691824E+002	-4.0373519E-001	-4.0395626E-001	3.499006222884626E-003	2.000000000000000E+000	-4.0303080E-006	1.4134455E-006
2	1	0	1	1	4.247808892691319E+002	-3.9373896E-001	-3.9397234E-001	3.868751817157720E-003	2.000000000000000E+000	-4.0229052E-006	1.5241812E-006
2	1	0	1	1	4.247828892690814E+002	-3.8374281E-001	-3.8396221E-001	4.251147266586486E-003	2.000000000000000E+000	-4.0147429E-006	1.6322799E-006
2	1	0	1	1	4.247848892690308E+002	-3.7374663E-001	-3.7394631E-001	4.609133415922576E-003	2.000000000000000E+000	-4.0058444E-006	1.7235684E-006
2	1	0	1	1	4.247868892689803E+002	-3.6375046E-001	-3.6393192E-001	4.934064400206092E-003	2.000000000000000E+000	-3.9962642E-006	1.7956636E-006
2	1	0	1	1	4.247888892689298E+002	-3.5375428E-001	-3.5397750E-001	5.259186428904480E-003	2.000000000000000E+000	-3.9860415E-006	1.8616337E-006
2	1	0	1	1	4.247908892688793E+002	-3.4375805E-001	-3.4396839E-001	5.607764647518512E-003	2.000000000000000E+000	-3.9751408E-006	1.9288939E-006
2	1	0	1	1	4.247928892688287E+002	-3.3376187E-001	-3.3394572E-001	5.953884415753744E-003	2.000000000000000E+000	-3.9635438E-006	1.9882743E-006
2	1	0	1	1	4.247948892687782E+002	-3.2376567E-001	-3.2394046E-001	6.292948872922158E-003	2.000000000000000E+000	-3.9512629E-006	2.0385407E-006
2	1	0	1	1	4.247968892687277E+002	-3.1376949E-001	-3.1396401E-001	6.628877417117318E-003	2.000000000000000E+000	-3.9383103E-006	2.0812290E-006
2	1	0	1	1	4.247988892686772E+002	-3.0377331E-001	-3.0396399E-001	6.996716191578226E-003	2.000000000000000E+000	-3.9246479E-006	2.1267497E-006
2	1	0	1	1	4.248008892686266E+002	-2.9377711E-001	-2.9395366E-001	7.403245971848618E-003	2.000000000000000E+000	-3.9102110E-006	2.1762112E-006
2	1	0	1	1	4.248028892685761E+002	-2.8378090E-001	-2.8392780E-001	7.811364815198528E-003	2.000000000000000E+000	-3.8949602E-006	2.2178635E-006
2	1	0	1	1	4.248048892685256E+002	-2.7378473E-001	-2.7395347E-001	8.232514166997551E-003	2.000000000000000E+000	-3.8788703E-006	2.2553259E-006
2	1	0	1	1	4.248068892684751E+002	-2.6378855E-001	-2.6396194E-001	8.769207150180619E-003	2.000000000000000E+000	-3.8618186E-006	2.3147370E-006
2	1	0	1	1	4.248088892684245E+002	-2.5379235E-001	-2.5397912E-001	9.336857612955329E-003	2.000000000000000E+000	-3.8436542E-006	2.3713669E-006
2	1	0	1	1	4.248108892683740E+002	-2.4379615E-001	-2.4398507E-001	1.000894650395723E-002	2.000000000000000E+000	-3.8242415E-006	2.4420335E-006
2	1	0	1	1	4.248128892683235E+002	-2.3379998E-001	-2.3400944E-001	1.076610977280426E-002	2.000000000000000E+000	-3.8033943E-006	2.5193713E-006
2	1	0	1	1	4.248148892682730E+002	-2.2380379E-001	-2.2399867E-001	1.167945643687240E-002	2.000000000000000E+000	-3.7808645E-006	2.6161827E-006
2	1	0	1	1	4.248168892682224E+002	-2.1380758E-001	-2.1400292E-001	1.272275391359777E-002	2.000000000000000E+000	-3.7563568E-006	2.7227065E-006
2	1	0	1	1	4.248188892681719E+002	-2.0381142E-001	-2.0398875E-001	1.388646752477345E-002	2.000000000000000E+000	-3.7296284E-006	2.8326831E-006
2	1	0	1	1	4.248208892681214E+002	-1.9381522E-001	-1.9400039E-001	1.517019553567581E-002	2.000000000000000E+000	-3.7004545E-006	2.9430239E-006
2	1	0	1	1	4.248228892680709E+002	-1.8381904E-001	-1.8402331E-001	1.664869164071409E-002	2.000000000000000E+000	-3.6684958E-006	3.0637473E-006
2	1	0	1	1	4.248248892680203E+002	-1.7382284E-001	-1.7400129E-001	1.817051786787888E-002	2.000000000000000E+000	-3.6335189E-006	3.1616935E-006
2	1	0	1	1	4.248268892679698E+002	-1.6382666E-001	-1.6399790E-001	1.979873232630774E-002	2.000000000000000E+000	-3.5953929E-006	3.2469507E-006
2	1	0	1	1	4.248288892679193E+002	-1.5383047E-001	-1.5399221E-001	2.145352137570938E-002	2.000000000000000E+000	-3.5539817E-006	3.3036752E-006
2	1	0	1	1	4.248308892678688E+002	-1.4383429E-001	-1.4400876E-001	2.300713044516875E-002	2.000000000000000E+000	-3.5093497E-006	3.3132283E-006
2	1	0	1	1	4.248328892678182E+002	-1.3383809E-001	-1.3400261E-001	2.463513525395283E-002	2.000000000000000E+000	-3.4615455E-006	3.3011725E-006
2	1	0	1	1	4.248348892677677E+002	-1.2384190E-001	-1.2399688E-001	2.608801523415932E-002	2.000000000000000E+000	-3.4106806E-006	3.2348325E-006
2	1	0	1	1	4.248368892677172E+002	-1.1384571E-001	-1.1399311E-001	2.725774517562551E-002	2.000000000000000E+000	-3.3572030E-006	3.1071952E-006
2	1	0	1	1	4.248388892676667E+002	-1.0384952E-001	-1.0398950E-001	2.834073055136188E-002	2.000000000000000E+000	-3.3014949E-006	2.9471382E-006
2	1	0	1	1	4.248408892676161E+002	-9.3853340E-002	-9.4004571E-002	2.912588326540166E-002	2.000000000000000E+000	-3.2439327E-006	2.7379663E-006
2	1	0	1	1	4.248428892675656E+002	-8.3857141E-002	-8.4021963E-002	2.968906262726195E-002	2.000000000000000E+000	-3.1850586E-006	2.4945334E-006
2	1	0	1	1	4.248448892675151E+002	-7.3860958E-002	-7.4027069E-002	2.991101592851919E-002	2.000000000000000E+000	-3.1254342E-006	2.2142249E-006
2	1	0	1	1	4.248468892674646E+002	-6.3864768E-002	-6.4028777E-002	2.991184223073007E-002	2.000000000000000E+000	-3.0656090E-006	1.9152187E-006
2	1	0	1	1	4.248488892674141E+002	-5.3868581E-002	-5.4044899E-002	2.966033142931540E-002	2.000000000000000E+000	-3.0060469E-006	1.6029896E-006
2	1	0	1	1	4.248508892673635E+002	-4.3872390E-002	-4.4036862E-002	2.916186276423915E-002	2.000000000000000E+000	-2.9472660E-006	1.2841969E-006
2	1	0	1	1	4.248528892673130E+002	-3.3876199E-002	-3.4020554E-002	2.854318865057492E-002	2.000000000000000E+000	-2.8896297E-006	9.7105510E-007
2	1	0	1	1	4.248548892672625E+002	-2.3880010E-002	-2.4010394E-002	2.768762620002641E-002	2.000000000000000E+000	-2.8334846E-006	6.6479083E-007
2	1	0	1	1	4.248568892672120E+002	-1.3754241E-002	-1.3916930E-002	2.691048206583620E-002	2.000000000000000E+000	-2.7789665E-006	3.7451130E-007
2	1	0	1	1	4.248588892671614E+002	-3.5544271E-003	-3.7087919E-003	2.611466958276454E-002	2.000000000000000E+000	-2.7260066E-006	9.6853874E-008
2	1	0	1	1	4.248608892671109E+002	6.4417599E-003	6.3181114E-003	2.526247500160635E-002	2.000000000000000E+000	-2.6746977E-006	1.5961113E-007
2	1	0	1	1	4.248628892670604E+002	1.6437946E-002	1.6338019E-002	2.434970110698489E-002	2.000000000000000E+000	-2.6251707E-006	3.9782589E-007
2	1	0	1	1	4.248648892670099E+002	2.6434129E-002	2.6314048E-002	2.352958342695878E-002	2.000000000000000E+000	-2.5773697E-006	6.1915858E-007
2	1	0	1	1	4.248668892669593E+002	3.6430310E-002	3.6307674E-002	2.286548322687545E-002	2.000000000000000E+000	-2.5310542E-006	8.3019250E-007
2	1	0	1	1	4.248688892669088E+002	4.6426497E-002	4.6305958E-002	2.221892571712182E-002	2.000000000000000E+000	-2.4860410E-006	1.0288686E-006
2	1	0	1	1	4.248708892668583E+002	5.6422681E-002	5.6331590E-002	2.160466008273132E-002	2.000000000000000E+000	-2.4422736E-006	1.2170249E-006
2	1	0	1	1	4.248728892668078E+002	6.6418864E-002	6.6327535E-002	2.105959800367907E-002	2.000000000000000E+000	-2.3996599E-006	1.3968312E-006
2	1	0	1	1	4.248748892667572E+002	7.6415047E-002	7.6301448E-002	2.052457961771226E-002	2.000000000000000E+000	-2.3581265E-006	1.5660552E-006
2	1	0	1	1	4.248768892667067E+002	8.6411230E-002	8.6271971E-002	2.007240961837747E-002	2.000000000000000E+000	-2.3175764E-006	1.7316863E-006
2	1	0	1	1	4.248786892666612E+002	9.5407806E-002	9.5288411E-002	1.978662197611156E-002	2.000000000000000E+000	-2.2817130E-006	1.8854357E-006
2	1	0	1	1	4.248795892666385E+002	9.9906117E-002	9.9791691E-002	1.957358419895172E-002	2.000000000000000E+000	-2.2639626E-006	1.9532811E-006
2	1	0	0	1	4.248797892666335E+002	1.0090573E-001	1.0080659E-001	1.957320235669613E-002	2.000000000000000E+000	-2.2600482E-006	1.9731078E-006
2	0	0	1	1	4.248799892666284E+002	9.9906117E-002	9.9932872E-002	1.827682368457317E-002	2.000000000000000E+000	-2.2563927E-006	1.8264554E-006
2	0	0	0	1	4.248810892666006E+002	9.4408169E-002	9.4395407E-002	1.305497449741073E-002	2.000000000000000E+000	-2.2415898E-006	1.2323296E-006
2	0	0	0	1	4.248830892665501E+002	8.4411994E-002	8.4378883E-002	7.687706345071418E-003	2.000000000000000E+000	-2.2215447E-006	6.4868010E-007
2	0	0	0	1	4.248850892664996E+002	7.4415803E-002	7.4365132E-002	4.793878968080714E-003	2.000000000000000E+000	-2.2094016E-006	3.5649745E-007
2	0	0	0	1	4.248870892664490E+002	6.4419627E-002	6.4390153E-002	2.892580685132394E-003	2.000000000000000E+000	-2.2019262E-006	1.8625371E-007
2	0	0	0	1	4.248890892663985E+002	5.4423444E-002	5.4404382E-002	1.473244285332639E-003	2.000000000000000E+000	-2.1977153E-006	8.0150947E-008
2	0	0	0	1	4.248910892663480E+002	4.4427257E-002	4.4388711E-002	3.420553050293377E-004	2.000000000000000E+000	-2.1960220E-006	1.5183394E-008
2	0	0	0	1	4.248930892662975E+002	3.4431074E-002	3.4376010E-002	-5.938783107018886E-004	2.000000000000000E+000	-2.1963747E-006	2.0415166E-008
2	0	0	0	1	4.248950892662469E+002	2.4434889E-002	2.4375604E-002	-1.391363769307142E-003	2.000000000000000E+000	-2.1984461E-006	3.3915335E-008
2	0	0	0	1	4.248970892661964E+002	1.4438707E-002	1.4386435E-002	-2.094580060480033E-003	2.000000000000000E+000	-2.2020035E-006	3.0133538E-008
2	0	0	0	1	4.248990892661459E+002	4.4425218E-003	4.3550818E-003	-2.739251611425663E-003	2.000000000000000E+000	-2.2069039E-006	1.1929665E-008
2	0	0	0	1	4.249010892660954E+002	-5.5536642E-003	-5.6557120E-003	-3.315016824368890E-003	2.000000000000000E+000	-2.2130196E-006	1.8748780E-008
2	0	0	0	1	4.249030892660448E+002	-1.5827525E-002	-1.5934436E-002	-3.991365554864179E-003	2.000000000000000E+000	-2.2203694E-006	6.3600154E-008
2	0	0	0	1	4.249050892659943E+002	-2.5879247E-002	-2.5960067E-002	-4.428724781519115E-003	2.000000000000000E+000	-2.2288425E-006	1.1496999E-007
2	0	0	0	1	4.249070892659438E+002	-3.5875440E-002	-3.5967685E-002	-4.878140758844685E-003	2.000000000000000E+000	-2.2381960E-006	1.7545543E-007
2	0	0	0	1	4.249090892658933E+002	-4.5871627E-002	-4.5975301E-002	-5.371820196059049E-003	2.000000000000000E+000	-2.2484940E-006	2.4697104E-007
2	0	0	0	1	4.249110892658427E+002	-5.5867817E-002	-5.5982500E-002	-5.829118384705595E-003	2.000000000000000E+000	-2.2597419E-006	3.2632863E-007
2	0	0	0	1	4.249130892657922E+002	-6.5864004E-002	-6.5968916E-002	-6.296884286004768E-003	2.000000000000000E+000	-2.2719121E-006	4.1539863E-007
2	0	0	0	1	4.249150892657417E+002	-7.5860187E-002	-7.5957246E-002	-6.802153928826257E-003	2.000000000000000E+000	-2.2850618E-006	5.1667286E-007
2	0	0	0	1	4.249170892656912E+002	-8.5856386E-002	-8.5950233E-002	-7.330371196278260E-003	2.000000000000000E+000	-2.2992456E-006	6.3004711E-007
2	0	0	0	1	4.249190892656407E+002	-9.5852576E-002	-9.5925637E-002	-7.880688587849551E-003	2.000000000000000E+000	-2.3145105E-006	7.5596006E-007
2	0	0	0	1	4.249210892655901E+002	-1.0584876E-001	-1.0590866E-001	-8.510230983322077E-003	2.000000000000000E+000	-2.3309617E-006	9.0130720E-007
2	0	0	0	1	4.249230892655396E+002	-1.1584495E-001	-1.1590695E-001	-9.212557796268450E-003	2.000000000000000E+000	-2.3487526E-006	1.0677995E-006
2	0	0	0	1	4.249250892654891E+002	-1.2584114E-001	-1.2592030E-001	-1.000271204652053E-002	2.000000000000000E+000	-2.3680427E-006	1.2595444E-006
2	0	0	0	1	4.249270892654386E+002	-1.3583733E-001	-1.3592982E-001	-1.088940267133390E-002	2.000000000000000E+000	-2.3890232E-006	1.4801946E-006
2	0	0	0	1	4.249290892653880E+002	-1.4583351E-001	-1.4593233E-001	-1.185921678511984E-002	2.000000000000000E+000	-2.4118740E-006	1.7306431E-006
2	0	0	0	1	4.249310892653375E+002	-1.5582970E-001	-1.5593338E-001	-1.301646839642168E-002	2.000000000000000E+000	-2.4368596E-006	2.0297018E-006
2	0	0	0	1	4.249330892652870E+002	-1.6582589E-001	-1.6594037E-001	-1.423781627353390E-002	2.000000000000000E+000	-2.4642382E-006	2.3626285E-006
2	0	0	0	1	4.249350892652365E+002	-1.7582208E-001	-1.7592381E-001	-1.558860625886560E-002	2.000000000000000E+000	-2.4941940E-006	2.7424071E-006
2	0	0	0	1	4.249370892651859E+002	-1.8581827E-001	-1.8593822E-001	-1.698959444103013E-002	2.000000000000000E+000	-2.5269026E-006	3.1590150E-006
2	0	0	0	1	4.249390892651354E+002	-1.9581446E-001	-1.9590831E-001	-1.850004338969785E-002	2.000000000000000E+000	-2.5625345E-006	3.6243123E-006
2	0	0	0	1	4.249410892650849E+002	-2.0581064E-001	-2.0590553E-001	-2.002100154358127E-002	2.000000000000000E+000	-2.6012165E-006	4.1224348E-006
2	0	0	0	1	4.249430892650344E+002	-2.1580683E-001	-2.1592376E-001	-2.155886867735213E-002	2.000000000000000E+000	-2.6429634E-006	4.6550717E-006
2	0	0	0	1	4.249450892649838E+002	-2.2580302E-001	-2.2593391E-001	-2.309588777522248E-002	2.000000000000000E+000	-2.6877726E-006	5.2181440E-006
2	0	0	0	1	4.249470892649333E+002	-2.3579921E-001	-2.3591439E-001	-2.453147701534264E-002	2.000000000000000E+000	-2.7355368E-006	5.7873285E-006
2	0	0	0	1	4.249490892648828E+002	-2.4579538E-001	-2.4591121E-001	-2.592330935456416E-002	2.000000000000000E+000	-2.7861411E-006	6.3748325E-006
2	0	0	0	1	4.249510892648323E+002	-2.5579160E-001	-2.5591564E-001	-2.715571713472148E-002	2.000000000000000E+000	-2.8393606E-006	6.9495727E-006
2	0	0	0	1	4.249530892647817E+002	-2.6578775E-001	-2.6588744E-001	-2.834424453491613E-002	2.000000000000000E+000	-2.8949698E-006	7.5363787E-006
2	0	0	0	1	4.249550892647312E+002	-2.7578396E-001	-2.7587897E-001	-2.927403199161449E-002	2.000000000000000E+000	-2.9526950E-006	8.0760901E-006
2	0	0	0	1	4.249570892646807E+002	-2.8578016E-001	-2.8586769E-001	-3.012527350721127E-002	2.000000000000000E+000	-3.0121812E-006	8.6118425E-006
2	0	0	0	1	4.249590892646302E+002	-2.9577634E-001	-2.9589018E-001	-3.075831158235404E-002	2.000000000000000E+000	-3.0731401E-006	9.1010825E-006
2	0	0	0	1	4.249610892645796E+002	-3.0577254E-001	-3.0589354E-001	-3.141124946745960E-002	2.000000000000000E+000	-3.1353729E-006	9.6084987E-006
2	0	0	0	1	4.249630892645291E+002	-3.1576875E-001	-3.1588867E-001	-3.184244114891038E-002	2.000000000000000E+000	-3.1986799E-006	1.0058667E-005
2	0	0	0	1	4.249650892644786E+002	-3.2576492E-001	-3.2588843E-001	-3.208734177880823E-002	2.000000000000000E+000	-3.2626388E-006	1.0456894E-005
2	0	0	0	1	4.249670892644281E+002	-3.3576110E-001	-3.3588675E-001	-3.214580246114762E-002	2.000000000000000E+000	-3.3268684E-006	1.0797349E-005
2	0	0	0	1	4.249690892643775E+002	-3.4575731E-001	-3.4590918E-001	-3.218690986775774E-002	2.000000000000000E+000	-3.3911965E-006	1.1133748E-005
2	0	0	0	1	4.249710892643270E+002	-3.5575351E-001	-3.5590658E-001	-3.203966827398573E-002	2.000000000000000E+000	-3.4554162E-006	1.1403129E-005
2	0	0	0	1	4.249730892642765E+002	-3.6574969E-001	-3.6588177E-001	-3.154192117694448E-002	2.000000000000000E+000	-3.5189601E-006	1.1540614E-005
2	0	0	0	1	4.249750892642260E+002	-3.7574586E-001	-3.7588540E-001	-3.129780385643244E-002	2.000000000000000E+000	-3.5817850E-006	1.1764388E-005
2	0	0	0	1	4.249770892641754E+002	-3.8574204E-001	-3.8591990E-001	-3.103770744483986E-002	2.000000000000000E+000	-3.6441011E-006	1.1978069E-005
2	0	0	0	1	4.249790892641249E+002	-3.9573821E-001	-3.9589474E-001	-3.063342575397754E-002	2.000000000000000E+000	-3.7057332E-006	1.2127612E-005
2	0	0	0	1	4.249810892640744E+002	-4.0573445E-001	-4.0590459E-001	-3.026878628022836E-002	2.000000000000000E+000	-3.7665880E-006	1.2286239E-005
2	0	0	0	1	4.249830892640239E+002	-4.1573063E-001	-4.1588852E-001	-2.990503701100045E-002	2.000000000000000E+000	-3.8266976E-006	1.2437162E-005
2	0	0	0	1	4.249850892639734E+002	-4.2572683E-001	-4.2588252E-001	-2.955906456514226E-002	2.000000000000000E+000	-3.8861426E-006	1.2588689E-005
2	0	0	0	1	4.249870892639228E+002	-4.3572298E-001	-4.3586308E-001	-2.912677049607740E-002	2.000000000000000E+000	-3.9447991E-006	1.2695284E-005
2	0	0	0	1	4.249890892638723E+002	-4.4571918E-001	-4.4584924E-001	-2.890566344447301E-002	2.000000000000000E+000	-4.0028031E-006	1.2887568E-005
2	0	0	0	1	4.249910892638218E+002	-4.5571539E-001	-4.5583522E-001	-2.860060697599285E-002	2.000000000000000E+000	-4.0602840E-006	1.3037164E-005
2	0	0	0	1	4.249930892637713E+002	-4.6571150E-001	-4.6584880E-001	-2.838867753315649E-002	2.000000000000000E+000	-4.1172457E-006	1.3224831E-005
2	0	0	0	1	4.249950892637207E+002	-4.7570771E-001	-4.7586957E-001	-2.813653008747175E-002	2.000000000000000E+000	-4.1737549E-006	1.3389318E-005
2	0	0	0	1	4.249970892636702E+002	-4.8570392E-001	-4.8585829E-001	-2.806442338058140E-002	2.000000000000000E+000	-4.2299594E-006	1.3635333E-005
2	0	0	0	1	4.249990892636197E+002	-4.9570009E-001	-4.9583265E-001	-2.804168773622628E-002	2.000000000000000E+000	-4.2860588E-006	1.3903985E-005
2	0	0	0	1	4.250010892635692E+002	-5.0569630E-001	-5.0585282E-001	-2.794938882976161E-002	2.000000000000000E+000	-4.3420587E-006	1.4138277E-005
2	0	0	0	1	4.250030892635186E+002	-5.1569253E-001	-5.1582962E-001	-2.794044834000586E-002	2.000000000000000E+000	-4.3979335E-006	1.4412511E-005
2	0	0	0	1	4.250050892634681E+002	-5.2568865E-001	-5.2584195E-001	-2.793029722225676E-002	2.000000000000000E+000	-4.4538187E-006	1.4686922E-005
2	0	0	0	1	4.250070892634176E+002	-5.3568488E-001	-5.3581434E-001	-2.788931695936800E-002	2.000000000000000E+000	-4.5096308E-006	1.4943496E-005
2	0	0	0	1	4.250090892633671E+002	-5.4568112E-001	-5.4582280E-001	-2.802119652430218E-002	2.000000000000000E+000	-4.5655420E-006	1.5294609E-005
2	0	0	0	1	4.250110892633165E+002	-5.5567724E-001	-5.5584079E-001	-2.817693747137023E-002	2.000000000000000E+000	-4.6217469E-006	1.5661892E-005
2	0	0	0	1	4.250130892632660E+002	-5.6567347E-001	-5.6582916E-001	-2.832595772997595E-002	2.000000000000000E+000	-4.6782757E-006	1.6027652E-005
2	0	0	0	1	4.250150892632155E+002	-5.7566965E-001	-5.7583594E-001	-2.853523966324345E-002	2.000000000000000E+000	-4.7351741E-006	1.6431617E-005
2	0	0	0	1	4.250170892631650E+002	-5.8566582E-001	-5.8581138E-001	-2.881294081978719E-002	2.000000000000000E+000	-4.7925387E-006	1.6878948E-005
2	0	0	0	1	4.250188892631195E+002	-5.9466243E-001	-5.9480298E-001	-2.908231306251506E-002	2.000000000000000E+000	-4.8446409E-006	1.7298247E-005
2	0	0	0	1	4.250197892630968E+002	-5.9916055E-001	-5.9930247E-001	-2.925396338105202E-002	2.000000000000000E+000	-4.8708666E-006	1.7531973E-005
2	0	0	1	1	4.250199892630917E+002	-6.0016018E-001	-6.0023725E-001	-2.926845848560333E-002	2.000000000000000E+000	-4.8767206E-006	1.7568020E-005