EC-Lab ASCII FILE
Nb header lines : 53                          

Cyclic Voltammetry

Run on channel : 1 (SN 0696)
User : 
Electrode connection : standard
Ewe ctrl range : min = -10.00 V, max = 10.00 V
Ewe,I filtering : 50 kHz
Channel : Grounded
Acquisition started on : 05/17/2017 12:14:48
Saved on :
	File : 100 uM MB 10mM PB Second ITO_01_CV_C01.mpr
	Directory : \\userfs\st659\w2k\EC-Lab\Data\ITO Characterisation 17-5-17\
	Host : 144.32.136.43
Device : SP-300 (SN 0182)
Address : USB
EC-Lab for windows v10.44 (software)
Internet server v10.44 (firmware)
Command interpretor v10.44 (firmware)
Electrode material : 
Initial state : 
Electrolyte : 
Comments : 
Cable : standard
Electrode surface area : 0.001 cm²
Characteristic mass : 0.001 g
Equivalent Weight : 0.000 g/eq.
Density : 0.000 g/cm3
Ei (V)              0.000               
vs.                 Eoc                 
dE/dt               20.000              
dE/dt unit          mV/s                
E1 (V)              0.100               
vs.                 Ref                 
Step percent        50                  
N                   10                  
E range min (V)     -10.000             
E range max (V)     10.000              
I Range             Auto                
I Range min         Unset               
I Range max         Unset               
I Range init        Unset               
Bandwidth           8                   
E2 (V)              -0.600              
vs.                 Ref                 
nc cycles           2                   
Reverse Scan        1                   
Ef (V)              0.000               
vs.                 Eoc                 

mode	ox/red	error	control changes	counter inc.	time/s	control/V	Ewe/V	<I>/mA	cycle number	(Q-Qo)/C	P/W
2	1	0	1	1	5.124779870537168E+001	-5.9982693E-001	-6.0006177E-001	-3.889030735525819E-003	2.000000000000000E+000	-8.2057202E-005	2.3336586E-006
2	1	0	1	1	5.133949870305514E+001	-5.9799397E-001	-5.9819597E-001	-3.802675898515559E-003	2.000000000000000E+000	-8.2405131E-005	2.2747454E-006
2	1	0	0	1	5.150609869884647E+001	-5.9466189E-001	-5.9487349E-001	-3.688352150466069E-003	2.000000000000000E+000	-8.3025581E-005	2.1941030E-006
2	1	0	1	1	5.167269869463780E+001	-5.9133023E-001	-5.9153229E-001	-3.591294282412838E-003	2.000000000000000E+000	-8.3628547E-005	2.1243666E-006
2	1	0	0	1	5.183929869042913E+001	-5.8799821E-001	-5.8820462E-001	-3.505084135484948E-003	2.000000000000000E+000	-8.4216314E-005	2.0617067E-006
2	1	0	1	1	5.200589868622046E+001	-5.8466619E-001	-5.8486253E-001	-3.425881794220403E-003	2.000000000000000E+000	-8.4790343E-005	2.0036698E-006
2	1	0	0	1	5.217249868201179E+001	-5.8133411E-001	-5.8152914E-001	-3.352932352006649E-003	2.000000000000000E+000	-8.5351712E-005	1.9498279E-006
2	1	0	1	1	5.233909867780312E+001	-5.7800204E-001	-5.7820594E-001	-3.284954545046057E-003	2.000000000000000E+000	-8.5901462E-005	1.8993802E-006
2	1	0	0	1	5.250569867359445E+001	-5.7467002E-001	-5.7487547E-001	-3.221659374526023E-003	2.000000000000000E+000	-8.6440326E-005	1.8520529E-006
2	1	0	1	1	5.267229866938578E+001	-5.7133836E-001	-5.7154697E-001	-3.161324918264975E-003	2.000000000000000E+000	-8.6968910E-005	1.8068457E-006
2	1	0	0	1	5.283889866517711E+001	-5.6800634E-001	-5.6821924E-001	-3.103766738061398E-003	2.000000000000000E+000	-8.7487664E-005	1.7636199E-006
2	1	0	1	1	5.300549866096844E+001	-5.6467420E-001	-5.6488591E-001	-3.049719560788540E-003	2.000000000000000E+000	-8.7997127E-005	1.7227436E-006
2	1	0	0	1	5.317209865675977E+001	-5.6134218E-001	-5.6153244E-001	-2.998706032453363E-003	2.000000000000000E+000	-8.8497844E-005	1.6838707E-006
2	1	0	1	1	5.333869865255110E+001	-5.5801004E-001	-5.5821675E-001	-2.952564206327300E-003	2.000000000000000E+000	-8.8990513E-005	1.6481708E-006
2	1	0	0	1	5.350539864833991E+001	-5.5467635E-001	-5.5489647E-001	-2.904943567570872E-003	2.000000000000000E+000	-8.9475689E-005	1.6119429E-006
2	1	0	1	1	5.367199864413124E+001	-5.5134428E-001	-5.5154651E-001	-2.860217539271365E-003	2.000000000000000E+000	-8.9952846E-005	1.5775430E-006
2	1	0	0	1	5.383859863992257E+001	-5.4801214E-001	-5.4820174E-001	-2.815238515472926E-003	2.000000000000000E+000	-9.0422516E-005	1.5433186E-006
2	1	0	1	1	5.400519863571390E+001	-5.4468018E-001	-5.4489249E-001	-2.772306842118013E-003	2.000000000000000E+000	-9.0884889E-005	1.5106092E-006
2	1	0	0	1	5.417179863150523E+001	-5.4134804E-001	-5.4155946E-001	-2.730162992382164E-003	2.000000000000000E+000	-9.1340211E-005	1.4785456E-006
2	1	0	1	1	5.433839862729656E+001	-5.3801596E-001	-5.3821874E-001	-2.689436515090290E-003	2.000000000000000E+000	-9.1788614E-005	1.4475052E-006
2	1	0	0	1	5.450499862308789E+001	-5.3468394E-001	-5.3488648E-001	-2.651163791061454E-003	2.000000000000000E+000	-9.2230461E-005	1.4180716E-006
2	1	0	1	1	5.467159861887922E+001	-5.3135186E-001	-5.3156209E-001	-2.613944092928262E-003	2.000000000000000E+000	-9.2666058E-005	1.3894736E-006
2	1	0	0	1	5.483819861467055E+001	-5.2802026E-001	-5.2824193E-001	-2.577355442346059E-003	2.000000000000000E+000	-9.3095528E-005	1.3614672E-006
2	1	0	1	1	5.500479861046188E+001	-5.2468818E-001	-5.2491134E-001	-2.543028819644987E-003	2.000000000000000E+000	-9.3519084E-005	1.3348647E-006
2	1	0	0	1	5.517139860625321E+001	-5.2135611E-001	-5.2156782E-001	-2.509293554259016E-003	2.000000000000000E+000	-9.3936935E-005	1.3087667E-006
2	1	0	1	1	5.533799860204454E+001	-5.1802403E-001	-5.1824248E-001	-2.477058217270508E-003	2.000000000000000E+000	-9.4349321E-005	1.2837168E-006
2	1	0	0	1	5.550459859783587E+001	-5.1469201E-001	-5.1490563E-001	-2.445091795492273E-003	2.000000000000000E+000	-9.4756368E-005	1.2589916E-006
2	1	0	1	1	5.567119859362720E+001	-5.1135993E-001	-5.1159281E-001	-2.414090345504143E-003	2.000000000000000E+000	-9.5158168E-005	1.2350313E-006
2	1	0	0	1	5.583779858941853E+001	-5.0802833E-001	-5.0824362E-001	-2.383519189658313E-003	2.000000000000000E+000	-9.5554846E-005	1.2114084E-006
2	1	0	1	1	5.600439858520986E+001	-5.0469625E-001	-5.0490314E-001	-2.354580903970132E-003	2.000000000000000E+000	-9.5946554E-005	1.1888353E-006
2	1	0	0	1	5.617099858100119E+001	-5.0136423E-001	-5.0157809E-001	-2.324077247444652E-003	2.000000000000000E+000	-9.6333337E-005	1.1657062E-006
2	1	0	1	1	5.633759857679252E+001	-4.9803215E-001	-4.9823001E-001	-2.295406945579677E-003	2.000000000000000E+000	-9.6715223E-005	1.1436406E-006
2	1	0	0	1	5.650419857258385E+001	-4.9470007E-001	-4.9489716E-001	-2.267904738210189E-003	2.000000000000000E+000	-9.7092445E-005	1.1223796E-006
2	1	0	1	1	5.667079856837518E+001	-4.9136803E-001	-4.9156833E-001	-2.241172801617499E-003	2.000000000000000E+000	-9.7465156E-005	1.1016896E-006
2	1	0	0	1	5.683739856416651E+001	-4.8803636E-001	-4.8825949E-001	-2.215786681400433E-003	2.000000000000000E+000	-9.7833494E-005	1.0818788E-006
2	1	0	1	1	5.700399855995784E+001	-4.8470438E-001	-4.8492044E-001	-2.189424813767497E-003	2.000000000000000E+000	-9.8197503E-005	1.0616968E-006
2	1	0	0	1	5.717059855574917E+001	-4.8137227E-001	-4.8159331E-001	-2.163947349961096E-003	2.000000000000000E+000	-9.8557241E-005	1.0421426E-006
2	1	0	1	1	5.733719855154050E+001	-4.7804022E-001	-4.7827142E-001	-2.139891635719572E-003	2.000000000000000E+000	-9.8912846E-005	1.0234490E-006
2	1	0	0	1	5.750379854733183E+001	-4.7470817E-001	-4.7492671E-001	-2.116350604411232E-003	2.000000000000000E+000	-9.9264485E-005	1.0051115E-006
2	1	0	1	1	5.767039854312316E+001	-4.7137606E-001	-4.7160366E-001	-2.093025693364016E-003	2.000000000000000E+000	-9.9612254E-005	9.8707858E-007
2	1	0	0	1	5.783699853891449E+001	-4.6804398E-001	-4.6823996E-001	-2.070070514866844E-003	2.000000000000000E+000	-9.9956174E-005	9.6928977E-007
2	1	0	1	1	5.800359853470582E+001	-4.6471238E-001	-4.6490261E-001	-2.047088220895412E-003	2.000000000000000E+000	-1.0029626E-004	9.5169668E-007
2	1	0	0	1	5.817019853049715E+001	-4.6138033E-001	-4.6159083E-001	-2.024992399590260E-003	2.000000000000000E+000	-1.0063259E-004	9.3471789E-007
2	1	0	1	1	5.833679852628848E+001	-4.5804822E-001	-4.5823389E-001	-2.002639998858843E-003	2.000000000000000E+000	-1.0096523E-004	9.1767754E-007
2	1	0	0	1	5.850339852207981E+001	-4.5471618E-001	-4.5489672E-001	-1.980818750415943E-003	2.000000000000000E+000	-1.0129419E-004	9.0106795E-007
2	1	0	1	1	5.866999851787114E+001	-4.5138413E-001	-4.5158133E-001	-1.959666644616293E-003	2.000000000000000E+000	-1.0161956E-004	8.8494886E-007
2	1	0	0	1	5.883659851366247E+001	-4.4805208E-001	-4.4823155E-001	-1.939152429651338E-003	2.000000000000000E+000	-1.0194145E-004	8.6918931E-007
2	1	0	1	1	5.900319850945380E+001	-4.4472042E-001	-4.4491389E-001	-1.918507477296924E-003	2.000000000000000E+000	-1.0225995E-004	8.5357061E-007
2	1	0	0	1	5.916979850524513E+001	-4.4138837E-001	-4.4158089E-001	-1.899298279248391E-003	2.000000000000000E+000	-1.0257513E-004	8.3869384E-007
2	1	0	1	1	5.933639850103646E+001	-4.3805632E-001	-4.3826321E-001	-1.879878812311091E-003	2.000000000000000E+000	-1.0288708E-004	8.2388169E-007
2	1	0	0	1	5.950299849682779E+001	-4.3472427E-001	-4.3492958E-001	-1.859810054246062E-003	2.000000000000000E+000	-1.0319573E-004	8.0888640E-007
2	1	0	1	1	5.966959849261912E+001	-4.3139219E-001	-4.3158606E-001	-1.840823194020999E-003	2.000000000000000E+000	-1.0350113E-004	7.9447364E-007
2	1	0	0	1	5.983619848841045E+001	-4.2806014E-001	-4.2826536E-001	-1.823100060142593E-003	2.000000000000000E+000	-1.0380347E-004	7.8077062E-007
2	1	0	1	1	6.000279848420178E+001	-4.2472854E-001	-4.2493552E-001	-1.804761157736791E-003	2.000000000000000E+000	-1.0410280E-004	7.6690714E-007
2	1	0	0	1	6.016939847999311E+001	-4.2139643E-001	-4.2162523E-001	-1.786704647611854E-003	2.000000000000000E+000	-1.0439911E-004	7.5331974E-007
2	1	0	1	1	6.033599847578444E+001	-4.1806439E-001	-4.1830608E-001	-1.768723325631862E-003	2.000000000000000E+000	-1.0469242E-004	7.3986774E-007
2	1	0	0	1	6.050259847157577E+001	-4.1473234E-001	-4.1494828E-001	-1.751642828664232E-003	2.000000000000000E+000	-1.0498278E-004	7.2684117E-007
2	1	0	1	1	6.066919846736710E+001	-4.1140023E-001	-4.1161531E-001	-1.734907931657058E-003	2.000000000000000E+000	-1.0527036E-004	7.1411466E-007
2	1	0	0	1	6.083579846315843E+001	-4.0806815E-001	-4.0829182E-001	-1.718886758150321E-003	2.000000000000000E+000	-1.0555522E-004	7.0180738E-007
2	1	0	1	1	6.100239845894976E+001	-4.0473613E-001	-4.0495673E-001	-1.703647729188504E-003	2.000000000000000E+000	-1.0583748E-004	6.8990363E-007
2	1	0	1	1	6.116909845473856E+001	-4.0140224E-001	-4.0163285E-001	-1.688355560107055E-003	2.000000000000000E+000	-1.0611738E-004	6.7809907E-007
2	1	0	0	1	6.133569845052989E+001	-3.9807016E-001	-3.9831400E-001	-1.673084424520778E-003	2.000000000000000E+000	-1.0639456E-004	6.6641297E-007
2	1	0	1	1	6.150229844632122E+001	-3.9473814E-001	-3.9498338E-001	-1.657997233785301E-003	2.000000000000000E+000	-1.0666918E-004	6.5488138E-007
2	1	0	0	1	6.166889844211255E+001	-3.9140606E-001	-3.9163592E-001	-1.642175043362226E-003	2.000000000000000E+000	-1.0694120E-004	6.4313474E-007
2	1	0	1	1	6.183549843790388E+001	-3.8807401E-001	-3.8829011E-001	-1.627970747834977E-003	2.000000000000000E+000	-1.0721075E-004	6.3212491E-007
2	1	0	0	1	6.200209843369521E+001	-3.8474193E-001	-3.8496664E-001	-1.613456434823390E-003	2.000000000000000E+000	-1.0747788E-004	6.2112690E-007
2	1	0	1	1	6.216869842948654E+001	-3.8140988E-001	-3.8161114E-001	-1.599247322748791E-003	2.000000000000000E+000	-1.0774261E-004	6.1029061E-007
2	1	0	0	1	6.233529842527787E+001	-3.7807828E-001	-3.7828103E-001	-1.584079886244549E-003	2.000000000000000E+000	-1.0800491E-004	5.9922735E-007
2	1	0	1	1	6.250189842106920E+001	-3.7474623E-001	-3.7494931E-001	-1.570901972138114E-003	2.000000000000000E+000	-1.0826487E-004	5.8900861E-007
2	1	0	0	1	6.266849841686053E+001	-3.7141412E-001	-3.7161189E-001	-1.558058126634780E-003	2.000000000000000E+000	-1.0852265E-004	5.7899291E-007
2	1	0	1	1	6.283509841265186E+001	-3.6808205E-001	-3.6828351E-001	-1.545469961692787E-003	2.000000000000000E+000	-1.0877832E-004	5.6917111E-007
2	1	0	0	1	6.300169840844319E+001	-3.6475000E-001	-3.6494422E-001	-1.532761738954808E-003	2.000000000000000E+000	-1.0903191E-004	5.5937255E-007
2	1	0	1	1	6.316829840423452E+001	-3.6141840E-001	-3.6164138E-001	-1.520322939981465E-003	2.000000000000000E+000	-1.0928339E-004	5.4981166E-007
2	1	0	0	1	6.333489840002585E+001	-3.5808632E-001	-3.5831621E-001	-1.507800228551556E-003	2.000000000000000E+000	-1.0953277E-004	5.4026924E-007
2	1	0	1	1	6.350149839581718E+001	-3.5475427E-001	-3.5499302E-001	-1.495473432472387E-003	2.000000000000000E+000	-1.0978007E-004	5.3088263E-007
2	1	0	0	1	6.366809839160851E+001	-3.5142219E-001	-3.5164204E-001	-1.482626501437344E-003	2.000000000000000E+000	-1.1002528E-004	5.2135380E-007
2	1	0	1	1	6.383469838739984E+001	-3.4809014E-001	-3.4830186E-001	-1.470168799432924E-003	2.000000000000000E+000	-1.1026843E-004	5.1206251E-007
2	1	0	0	1	6.400129838319117E+001	-3.4475809E-001	-3.4498268E-001	-1.459196781746956E-003	2.000000000000000E+000	-1.1050960E-004	5.0339764E-007
2	1	0	1	1	6.416799837897997E+001	-3.4142432E-001	-3.4165704E-001	-1.447316488242991E-003	2.000000000000000E+000	-1.1074902E-004	4.9448585E-007
2	1	0	0	1	6.433459837477130E+001	-3.3809224E-001	-3.3826855E-001	-1.435158095222478E-003	2.000000000000000E+000	-1.1098627E-004	4.8546883E-007
2	1	0	1	1	6.450119837056263E+001	-3.3476016E-001	-3.3494827E-001	-1.423298594833092E-003	2.000000000000000E+000	-1.1122154E-004	4.7673140E-007
2	1	0	0	1	6.466779836635396E+001	-3.3142808E-001	-3.3161163E-001	-1.411417865725352E-003	2.000000000000000E+000	-1.1145481E-004	4.6804257E-007
2	1	0	1	1	6.483439836214529E+001	-3.2809603E-001	-3.2826114E-001	-1.399350235736460E-003	2.000000000000000E+000	-1.1168612E-004	4.5935229E-007
2	1	0	0	1	6.500099835793662E+001	-3.2476398E-001	-3.2493195E-001	-1.388194579606424E-003	2.000000000000000E+000	-1.1191548E-004	4.5106876E-007
2	1	0	1	1	6.516759835372795E+001	-3.2143188E-001	-3.2162592E-001	-1.376411778950253E-003	2.000000000000000E+000	-1.1214291E-004	4.4268970E-007
2	1	0	0	1	6.533419834951928E+001	-3.1809983E-001	-3.1829891E-001	-1.364548031186488E-003	2.000000000000000E+000	-1.1236838E-004	4.3433414E-007
2	1	0	1	1	6.550079834531061E+001	-3.1476822E-001	-3.1496635E-001	-1.352608519040708E-003	2.000000000000000E+000	-1.1259186E-004	4.2602616E-007
2	1	0	0	1	6.566739834110194E+001	-3.1143615E-001	-3.1163928E-001	-1.340900866992453E-003	2.000000000000000E+000	-1.1281337E-004	4.1787737E-007
2	1	0	1	1	6.583399833689327E+001	-3.0810410E-001	-3.0830207E-001	-1.330016449220379E-003	2.000000000000000E+000	-1.1303299E-004	4.1004682E-007
2	1	0	0	1	6.600059833268460E+001	-3.0477202E-001	-3.0493629E-001	-1.318921484221445E-003	2.000000000000000E+000	-1.1325077E-004	4.0218703E-007
2	1	0	1	1	6.616719832847593E+001	-3.0143997E-001	-3.0162722E-001	-1.307865045348541E-003	2.000000000000000E+000	-1.1346670E-004	3.9448770E-007
2	1	0	0	1	6.633379832426726E+001	-2.9810834E-001	-2.9829681E-001	-1.295615684856312E-003	2.000000000000000E+000	-1.1368066E-004	3.8647804E-007
2	1	0	1	1	6.650039832005859E+001	-2.9477629E-001	-2.9494366E-001	-1.283356872859579E-003	2.000000000000000E+000	-1.1389257E-004	3.7851797E-007
2	1	0	0	1	6.666699831584992E+001	-2.9144424E-001	-2.9162708E-001	-1.271059490287984E-003	2.000000000000000E+000	-1.1410241E-004	3.7067537E-007
2	1	0	1	1	6.683359831164125E+001	-2.8811219E-001	-2.8829050E-001	-1.257962575675857E-003	2.000000000000000E+000	-1.1431015E-004	3.6265865E-007
2	1	0	0	1	6.700019830743258E+001	-2.8478011E-001	-2.8494671E-001	-1.245054224821615E-003	2.000000000000000E+000	-1.1451569E-004	3.5477410E-007
2	1	0	1	1	6.716679830322391E+001	-2.8144804E-001	-2.8161630E-001	-1.232210675368879E-003	2.000000000000000E+000	-1.1471906E-004	3.4701060E-007
2	1	0	0	1	6.733339829901524E+001	-2.7811596E-001	-2.7828097E-001	-1.218358744188920E-003	2.000000000000000E+000	-1.1492020E-004	3.3904607E-007
2	1	0	1	1	6.749999829480657E+001	-2.7478436E-001	-2.7495456E-001	-1.204589601006938E-003	2.000000000000000E+000	-1.1511904E-004	3.3120739E-007
2	1	0	0	1	6.766659829059790E+001	-2.7145231E-001	-2.7163026E-001	-1.190540685507127E-003	2.000000000000000E+000	-1.1531552E-004	3.2338687E-007
2	1	0	1	1	6.783319828638923E+001	-2.6812023E-001	-2.6830980E-001	-1.175117285588147E-003	2.000000000000000E+000	-1.1550949E-004	3.1529549E-007
2	1	0	0	1	6.799979828218056E+001	-2.6478818E-001	-2.6496965E-001	-1.160194873323589E-003	2.000000000000000E+000	-1.1570094E-004	3.0741643E-007
2	1	0	1	1	6.816639827797189E+001	-2.6145610E-001	-2.6163474E-001	-1.144853257514660E-003	2.000000000000000E+000	-1.1588987E-004	2.9953338E-007
2	1	0	0	1	6.833299827376322E+001	-2.5812405E-001	-2.5830305E-001	-1.129199060608144E-003	2.000000000000000E+000	-1.1607617E-004	2.9167555E-007
2	1	0	1	1	6.849959826955455E+001	-2.5479198E-001	-2.5500274E-001	-1.112489731058734E-003	2.000000000000000E+000	-1.1625968E-004	2.8368794E-007
2	1	0	0	1	6.866619826534588E+001	-2.5146031E-001	-2.5165623E-001	-1.094174008800589E-003	2.000000000000000E+000	-1.1644025E-004	2.7535572E-007
2	1	0	1	1	6.883279826113721E+001	-2.4812829E-001	-2.4833167E-001	-1.075442025326355E-003	2.000000000000000E+000	-1.1661772E-004	2.6706630E-007
2	1	0	0	1	6.899939825692854E+001	-2.4479625E-001	-2.4498489E-001	-1.055733974803900E-003	2.000000000000000E+000	-1.1679194E-004	2.5863886E-007
2	1	0	1	1	6.916599825271987E+001	-2.4146417E-001	-2.4165881E-001	-1.034497845375491E-003	2.000000000000000E+000	-1.1696267E-004	2.4999551E-007
2	1	0	0	1	6.933259824851120E+001	-2.3813212E-001	-2.3832877E-001	-1.011599462728514E-003	2.000000000000000E+000	-1.1712966E-004	2.4109326E-007
2	1	0	1	1	6.949919824430253E+001	-2.3480006E-001	-2.3500019E-001	-9.869729815927403E-004	2.000000000000000E+000	-1.1729265E-004	2.3193884E-007
2	1	0	0	1	6.966579824009386E+001	-2.3146842E-001	-2.3169313E-001	-9.603874538489897E-004	2.000000000000000E+000	-1.1745132E-004	2.2251518E-007
2	1	0	1	1	6.983239823588519E+001	-2.2813635E-001	-2.2834611E-001	-9.315642368433116E-004	2.000000000000000E+000	-1.1760522E-004	2.1271907E-007
2	1	0	0	1	6.999899823167652E+001	-2.2480430E-001	-2.2501744E-001	-8.988794131406103E-004	2.000000000000000E+000	-1.1775395E-004	2.0226355E-007
2	1	0	1	1	7.016559822746785E+001	-2.2147225E-001	-2.2168577E-001	-8.626138839828469E-004	2.000000000000000E+000	-1.1789683E-004	1.9122922E-007
2	1	0	0	1	7.033219822325918E+001	-2.1814016E-001	-2.1833540E-001	-8.226510421662087E-004	2.000000000000000E+000	-1.1803332E-004	1.7961385E-007
2	1	0	1	1	7.049879821905051E+001	-2.1480811E-001	-2.1500577E-001	-7.782195118785709E-004	2.000000000000000E+000	-1.1816269E-004	1.6732169E-007
2	1	0	0	1	7.066539821484184E+001	-2.1147650E-001	-2.1167988E-001	-7.272068752426062E-004	2.000000000000000E+000	-1.1828398E-004	1.5393506E-007
2	1	0	1	1	7.083199821063317E+001	-2.0814443E-001	-2.0832524E-001	-6.711756171524867E-004	2.000000000000000E+000	-1.1839624E-004	1.3982282E-007
2	1	0	0	1	7.099859820642450E+001	-2.0481235E-001	-2.0499288E-001	-6.087831516825323E-004	2.000000000000000E+000	-1.1849857E-004	1.2479620E-007
2	1	0	1	1	7.116519820221583E+001	-2.0148028E-001	-2.0166749E-001	-5.394511260121320E-004	2.000000000000000E+000	-1.1858981E-004	1.0878976E-007
2	1	0	0	1	7.134849819758529E+001	-1.9781443E-001	-1.9800168E-001	-4.562051221145523E-004	2.000000000000000E+000	-1.1867449E-004	9.0329380E-008
2	1	0	0	1	7.153179819295474E+001	-1.9414797E-001	-1.9432978E-001	-3.660407726833728E-004	2.000000000000000E+000	-1.1874464E-004	7.1132625E-008
2	1	0	1	1	7.169839818874607E+001	-1.9081636E-001	-1.9101351E-001	-2.780421054002005E-004	2.000000000000000E+000	-1.1879374E-004	5.3109801E-008
2	1	0	0	1	7.186499818453740E+001	-1.8748431E-001	-1.8768802E-001	-1.872580791003229E-004	2.000000000000000E+000	-1.1882785E-004	3.5146098E-008
2	1	0	1	1	7.203159818032873E+001	-1.8415225E-001	-1.8436058E-001	-9.717324642723939E-005	2.000000000000000E+000	-1.1884687E-004	1.7914916E-008
2	1	0	0	1	7.219819817612006E+001	-1.8082018E-001	-1.8101484E-001	-8.292118787713067E-006	2.000000000000000E+000	-1.1885100E-004	1.5009965E-009
2	1	0	1	1	7.236479817191139E+001	-1.7748812E-001	-1.7767768E-001	7.373009147072329E-005	2.000000000000000E+000	-1.1884094E-004	1.3100191E-008
2	1	0	0	1	7.253139816770272E+001	-1.7415605E-001	-1.7435572E-001	1.441367772812406E-004	2.000000000000000E+000	-1.1881820E-004	2.5131071E-008
2	1	0	1	1	7.269799816349405E+001	-1.7082399E-001	-1.7101847E-001	2.037376640182309E-004	2.000000000000000E+000	-1.1878467E-004	3.4842902E-008
2	1	0	0	1	7.286459815928538E+001	-1.6749237E-001	-1.6768871E-001	2.507055701557268E-004	2.000000000000000E+000	-1.1874230E-004	4.2040494E-008
2	1	0	1	1	7.303119815507671E+001	-1.6416033E-001	-1.6435528E-001	2.841330382420352E-004	2.000000000000000E+000	-1.1869329E-004	4.6698766E-008
2	1	0	0	1	7.319779815086804E+001	-1.6082825E-001	-1.6100582E-001	3.060465071363738E-004	2.000000000000000E+000	-1.1863981E-004	4.9275272E-008
2	1	0	1	1	7.336439814665937E+001	-1.5749618E-001	-1.5766414E-001	3.154484984756603E-004	2.000000000000000E+000	-1.1858379E-004	4.9734915E-008
2	1	0	0	1	7.353099814245070E+001	-1.5416411E-001	-1.5431677E-001	3.145059366024229E-004	2.000000000000000E+000	-1.1852711E-004	4.8533540E-008
2	1	0	1	1	7.369759813824203E+001	-1.5083206E-001	-1.5100069E-001	3.057431280048021E-004	2.000000000000000E+000	-1.1847131E-004	4.6167425E-008
2	1	0	0	1	7.386419813403336E+001	-1.4750043E-001	-1.4766945E-001	2.908062122059822E-004	2.000000000000000E+000	-1.1841757E-004	4.2943192E-008
2	1	0	1	1	7.403079812982469E+001	-1.4416838E-001	-1.4433965E-001	2.731083869274053E-004	2.000000000000000E+000	-1.1836665E-004	3.9420371E-008
2	1	0	0	1	7.419739812561602E+001	-1.4083631E-001	-1.4101726E-001	2.527880704799459E-004	2.000000000000000E+000	-1.1831895E-004	3.5647481E-008
2	1	0	1	1	7.436399812140735E+001	-1.3750425E-001	-1.3768962E-001	2.315617084416976E-004	2.000000000000000E+000	-1.1827479E-004	3.1883644E-008
2	1	0	0	1	7.453059811719868E+001	-1.3417219E-001	-1.3433334E-001	2.098303174201004E-004	2.000000000000000E+000	-1.1823425E-004	2.8187207E-008
2	1	0	1	1	7.469719811299001E+001	-1.3084014E-001	-1.3100903E-001	1.874452080918645E-004	2.000000000000000E+000	-1.1819744E-004	2.4557014E-008
2	1	0	0	1	7.486379810878134E+001	-1.2750851E-001	-1.2768963E-001	1.673469952911792E-004	2.000000000000000E+000	-1.1816423E-004	2.1368475E-008
2	1	0	1	1	7.503039810457267E+001	-1.2417644E-001	-1.2433653E-001	1.480964025703836E-004	2.000000000000000E+000	-1.1813438E-004	1.8413791E-008
2	1	0	0	1	7.519699810036400E+001	-1.2084438E-001	-1.2100548E-001	1.288418954999140E-004	2.000000000000000E+000	-1.1810780E-004	1.5590576E-008
2	1	0	1	1	7.536359809615533E+001	-1.1751233E-001	-1.1766425E-001	1.120868290853173E-004	2.000000000000000E+000	-1.1808426E-004	1.3188613E-008
2	1	0	0	1	7.553019809194666E+001	-1.1418024E-001	-1.1431495E-001	9.625733219854054E-005	2.000000000000000E+000	-1.1806349E-004	1.1003652E-008
2	1	0	1	1	7.569679808773799E+001	-1.1084818E-001	-1.1098497E-001	8.128560317099390E-005	2.000000000000000E+000	-1.1804541E-004	9.0214796E-009
2	1	0	0	1	7.586339808352932E+001	-1.0751612E-001	-1.0765382E-001	6.727366341878439E-005	2.000000000000000E+000	-1.1802977E-004	7.2422668E-009
2	1	0	1	1	7.602999807932065E+001	-1.0418406E-001	-1.0435119E-001	5.431818779115462E-005	2.000000000000000E+000	-1.1801643E-004	5.6681677E-009
2	1	0	1	1	7.619669807510945E+001	-1.0085020E-001	-1.0100498E-001	4.258761066087014E-005	2.000000000000000E+000	-1.1800518E-004	4.3015609E-009
2	1	0	0	1	7.636329807090078E+001	-9.7518139E-002	-9.7690202E-002	3.202980723871472E-005	2.000000000000000E+000	-1.1799586E-004	3.1289984E-009
2	1	0	1	1	7.652989806669211E+001	-9.4186082E-002	-9.4360232E-002	2.201480701832049E-005	2.000000000000000E+000	-1.1798829E-004	2.0773223E-009
2	1	0	0	1	7.669649806248344E+001	-9.0854019E-002	-9.1014124E-002	1.316427706650372E-005	2.000000000000000E+000	-1.1798235E-004	1.1981351E-009
2	1	0	1	1	7.686309805827477E+001	-8.7521955E-002	-8.7701686E-002	4.356731627421783E-006	2.000000000000000E+000	-1.1797794E-004	3.8209272E-010
2	1	0	0	1	7.702969805406610E+001	-8.4189892E-002	-8.4373191E-002	-3.490201700759998E-006	2.000000000000000E+000	-1.1797495E-004	2.9447947E-010
2	1	0	1	1	7.719629804985743E+001	-8.0858275E-002	-8.1042551E-002	-1.111454999808519E-005	2.000000000000000E+000	-1.1797329E-004	9.0075147E-010
2	1	0	0	1	7.736289804564876E+001	-7.7526212E-002	-7.7714622E-002	-1.833384535425604E-005	2.000000000000000E+000	-1.1797288E-004	1.4248078E-009
2	1	0	1	1	7.752949804144009E+001	-7.4194156E-002	-7.4381076E-002	-2.495541030019078E-005	2.000000000000000E+000	-1.1797366E-004	1.8562103E-009
2	1	0	0	1	7.769609803723142E+001	-7.0862092E-002	-7.1035944E-002	-3.081522315563469E-005	2.000000000000000E+000	-1.1797553E-004	2.1889885E-009
2	1	0	1	1	7.786269803302275E+001	-6.7530036E-002	-6.7706175E-002	-3.705996378201273E-005	2.000000000000000E+000	-1.1797846E-004	2.5091884E-009
2	1	0	0	1	7.802929802881408E+001	-6.4197965E-002	-6.4364307E-002	-4.188504606380508E-005	2.000000000000000E+000	-1.1798232E-004	2.6959019E-009
2	1	0	1	1	7.819589802460541E+001	-6.0866348E-002	-6.1063997E-002	-4.796578245998753E-005	2.000000000000000E+000	-1.1798713E-004	2.9289824E-009
2	1	0	0	1	7.836249802039674E+001	-5.7534285E-002	-5.7727002E-002	-5.335513049680492E-005	2.000000000000000E+000	-1.1799288E-004	3.0800318E-009
2	1	0	1	1	7.852909801618807E+001	-5.4202229E-002	-5.4395959E-002	-5.799805947791616E-005	2.000000000000000E+000	-1.1799952E-004	3.1548602E-009
2	1	0	0	1	7.869569801197940E+001	-5.0870158E-002	-5.1052351E-002	-6.248988090130686E-005	2.000000000000000E+000	-1.1800693E-004	3.1902554E-009
2	1	0	1	1	7.886229800777073E+001	-4.7538094E-002	-4.7733184E-002	-6.711869524234743E-005	2.000000000000000E+000	-1.1801510E-004	3.2037890E-009
2	1	0	0	1	7.902889800356206E+001	-4.4206034E-002	-4.4400420E-002	-7.115407012060889E-005	2.000000000000000E+000	-1.1802401E-004	3.1592706E-009
2	1	0	1	1	7.919559799935087E+001	-4.0872201E-002	-4.1068390E-002	-7.532563170115349E-005	2.000000000000000E+000	-1.1803360E-004	3.0935023E-009
2	1	0	0	1	7.936219799514220E+001	-3.7540134E-002	-3.7695795E-002	-7.859044150934085E-005	2.000000000000000E+000	-1.1804381E-004	2.9625291E-009
2	1	0	1	1	7.952879799093353E+001	-3.4208070E-002	-3.4378245E-002	-8.217409304913281E-005	2.000000000000000E+000	-1.1805465E-004	2.8250011E-009
2	1	0	0	1	7.969539798672486E+001	-3.0876009E-002	-3.1058695E-002	-8.547017148528597E-005	2.000000000000000E+000	-1.1806606E-004	2.6545921E-009
2	1	0	1	1	7.986199798251619E+001	-2.7543949E-002	-2.7698968E-002	-8.813016544589988E-005	2.000000000000000E+000	-1.1807797E-004	2.4411146E-009
2	1	0	0	1	8.002859797830752E+001	-2.4211884E-002	-2.4382588E-002	-9.125148079471289E-005	2.000000000000000E+000	-1.1809039E-004	2.2249471E-009
2	1	0	1	1	8.019519797409885E+001	-2.0879822E-002	-2.1051064E-002	-9.381571907676322E-005	2.000000000000000E+000	-1.1810329E-004	1.9749207E-009
2	1	0	0	1	8.036179796989018E+001	-1.7548203E-002	-1.7731691E-002	-9.636997417971217E-005	2.000000000000000E+000	-1.1811664E-004	1.7088025E-009
2	1	0	1	1	8.052839796568151E+001	-1.4216141E-002	-1.4395724E-002	-9.868799573941039E-005	2.000000000000000E+000	-1.1813037E-004	1.4206851E-009
2	1	0	0	1	8.069499796147284E+001	-1.0884076E-002	-1.1075906E-002	-1.004425703499905E-004	2.000000000000000E+000	-1.1814447E-004	1.1124924E-009
2	1	0	1	1	8.086159795726417E+001	-7.5520137E-003	-7.7371919E-003	-1.021048855252738E-004	2.000000000000000E+000	-1.1815885E-004	7.9000506E-010
2	1	0	0	1	8.102819795305550E+001	-4.2199511E-003	-4.4000028E-003	-1.038289933331933E-004	2.000000000000000E+000	-1.1817353E-004	4.5684787E-010
2	1	0	1	1	8.119479794884683E+001	-8.7554613E-004	-1.0651312E-003	-1.052547170565287E-004	2.000000000000000E+000	-1.1818847E-004	1.1211008E-010
2	1	0	0	1	8.136139794463816E+001	2.4437299E-003	2.2602091E-003	-1.063849504158050E-004	2.000000000000000E+000	-1.1820361E-004	2.4045224E-010
2	1	0	1	1	8.152799794042949E+001	5.7757916E-003	5.6264629E-003	-1.074401624448055E-004	2.000000000000000E+000	-1.1821894E-004	6.0450811E-010
2	1	0	0	1	8.169459793622082E+001	9.1078524E-003	8.9467382E-003	-1.086384612280205E-004	2.000000000000000E+000	-1.1823447E-004	9.7195985E-010
2	1	0	1	1	8.186119793201215E+001	1.2439915E-002	1.2296628E-002	-1.092938758194317E-004	2.000000000000000E+000	-1.1825016E-004	1.3439462E-009
2	1	0	0	1	8.202779792780348E+001	1.5771974E-002	1.5642589E-002	-1.093072587906741E-004	2.000000000000000E+000	-1.1826593E-004	1.7098485E-009
2	1	0	1	1	8.219439792359481E+001	1.9104037E-002	1.8980654E-002	-1.094684202064649E-004	2.000000000000000E+000	-1.1828172E-004	2.0777822E-009
2	1	0	0	1	8.236099791938614E+001	2.2435654E-002	2.2295132E-002	-1.112906487507194E-004	2.000000000000000E+000	-1.1829765E-004	2.4812397E-009
2	1	0	1	1	8.252759791517747E+001	2.5767716E-002	2.5614781E-002	-1.113827065629118E-004	2.000000000000000E+000	-1.1831373E-004	2.8530436E-009
2	1	0	0	1	8.269419791096880E+001	2.9099777E-002	2.8950952E-002	-1.115766326110590E-004	2.000000000000000E+000	-1.1832987E-004	3.2302496E-009
2	1	0	1	1	8.286079790676013E+001	3.2431837E-002	3.2278173E-002	-1.116708158962637E-004	2.000000000000000E+000	-1.1834603E-004	3.6045298E-009
2	1	0	0	1	8.302739790255146E+001	3.5763897E-002	3.5625145E-002	-1.116116961532043E-004	2.000000000000000E+000	-1.1836216E-004	3.9761829E-009
2	1	0	1	1	8.319399789834279E+001	3.9095961E-002	3.8968723E-002	-1.112612535343811E-004	2.000000000000000E+000	-1.1837828E-004	4.3357091E-009
2	1	0	0	1	8.336059789413412E+001	4.2428020E-002	4.2280231E-002	-1.110411364944966E-004	2.000000000000000E+000	-1.1839439E-004	4.6948450E-009
2	1	0	1	1	8.352719788992545E+001	4.5759641E-002	4.5647535E-002	-1.101979807725496E-004	2.000000000000000E+000	-1.1841037E-004	5.0302664E-009
2	1	0	0	1	8.369379788571678E+001	4.9091700E-002	4.8983481E-002	-1.094669289056063E-004	2.000000000000000E+000	-1.1842626E-004	5.3620712E-009
2	1	0	1	1	8.386039788150811E+001	5.2423764E-002	5.2322857E-002	-1.090739218096350E-004	2.000000000000000E+000	-1.1844205E-004	5.7070593E-009
2	1	0	0	1	8.402699787729944E+001	5.5755820E-002	5.5641845E-002	-1.084130857682652E-004	2.000000000000000E+000	-1.1845773E-004	6.0323040E-009
2	1	0	1	1	8.419359787309077E+001	5.9087880E-002	5.8965243E-002	-1.074819084077099E-004	2.000000000000000E+000	-1.1847328E-004	6.3376970E-009
2	1	0	0	1	8.436019786888210E+001	6.2419947E-002	6.2310293E-002	-1.066542495027020E-004	2.000000000000000E+000	-1.1848871E-004	6.6456574E-009
2	1	0	1	1	8.452679786467343E+001	6.5751567E-002	6.5640315E-002	-1.055460808776618E-004	2.000000000000000E+000	-1.1850399E-004	6.9280781E-009
2	1	0	0	1	8.469339786046476E+001	6.9083624E-002	6.8954639E-002	-1.043998848054255E-004	2.000000000000000E+000	-1.1851911E-004	7.1988562E-009
2	1	0	1	1	8.485999785625609E+001	7.2415687E-002	7.2290972E-002	-1.032936070830199E-004	2.000000000000000E+000	-1.1853402E-004	7.4671949E-009
2	1	0	0	1	8.502659785204742E+001	7.5747751E-002	7.5640731E-002	-1.019871369613169E-004	2.000000000000000E+000	-1.1854871E-004	7.7143811E-009
2	1	0	1	1	8.519319784783875E+001	7.9079814E-002	7.8951582E-002	-1.003222833521659E-004	2.000000000000000E+000	-1.1856317E-004	7.9206028E-009
2	1	0	0	1	8.535979784363008E+001	8.2411863E-002	8.2292043E-002	-9.911341731727737E-005	2.000000000000000E+000	-1.1857740E-004	8.1562455E-009
2	1	0	1	1	8.552639783942141E+001	8.5743494E-002	8.5595928E-002	-9.766275136885742E-005	2.000000000000000E+000	-1.1859140E-004	8.3595335E-009
2	1	0	0	1	8.569299783521274E+001	8.9075550E-002	8.8925526E-002	-9.575425570943971E-005	2.000000000000000E+000	-1.1860511E-004	8.5149976E-009
2	1	0	1	1	8.585959783100407E+001	9.2407621E-002	9.2258245E-002	-9.379120503653156E-005	2.000000000000000E+000	-1.1861849E-004	8.6530116E-009
2	1	0	0	1	8.602619782679540E+001	9.5739670E-002	9.5585532E-002	-9.233601203116430E-005	2.000000000000000E+000	-1.1863160E-004	8.8259871E-009
2	1	0	1	1	8.616779782321828E+001	9.8571934E-002	9.8426975E-002	-9.056237799926576E-005	2.000000000000000E+000	-1.1864252E-004	8.9137808E-009
2	0	0	1	1	8.623499782152066E+001	9.9906117E-002	9.9803142E-002	-8.945730208627840E-005	2.000000000000000E+000	-1.1864763E-004	8.9281196E-009
2	0	0	0	1	8.632659781920665E+001	9.8073006E-002	9.7938821E-002	-1.290234514422537E-004	2.000000000000000E+000	-1.1866040E-004	1.2636405E-008
2	0	0	1	1	8.649319781499798E+001	9.4740942E-002	9.4595447E-002	-1.682816074861401E-004	2.000000000000000E+000	-1.1868778E-004	1.5918674E-008
2	0	0	0	1	8.665979781078931E+001	9.1408886E-002	9.1277145E-002	-1.982847740867316E-004	2.000000000000000E+000	-1.1872083E-004	1.8098868E-008
2	0	0	1	1	8.682639780658064E+001	8.8076822E-002	8.7943517E-002	-2.254258027624158E-004	2.000000000000000E+000	-1.1875862E-004	1.9824737E-008
2	0	0	0	1	8.699299780237197E+001	8.4745198E-002	8.4620342E-002	-2.497259908184196E-004	2.000000000000000E+000	-1.1880069E-004	2.1131898E-008
2	0	0	1	1	8.715959779816330E+001	8.1413142E-002	8.1297077E-002	-2.723091519591398E-004	2.000000000000000E+000	-1.1884664E-004	2.2137938E-008
2	0	0	0	1	8.732619779395463E+001	7.8081079E-002	7.7969447E-002	-2.929145521406665E-004	2.000000000000000E+000	-1.1889620E-004	2.2838385E-008
2	0	0	1	1	8.749279778974596E+001	7.4749015E-002	7.4628763E-002	-3.125719629883915E-004	2.000000000000000E+000	-1.1894912E-004	2.3326859E-008
2	0	0	0	1	8.765939778553729E+001	7.1416959E-002	7.1279511E-002	-3.308929829229507E-004	2.000000000000000E+000	-1.1900521E-004	2.3585891E-008
2	0	0	1	1	8.782599778132862E+001	6.8084896E-002	6.7963950E-002	-3.483311948626376E-004	2.000000000000000E+000	-1.1906426E-004	2.3673964E-008
2	0	0	0	1	8.799259777711995E+001	6.4752832E-002	6.4649366E-002	-3.645301832824518E-004	2.000000000000000E+000	-1.1912613E-004	2.3566646E-008
2	0	0	1	1	8.815919777291128E+001	6.1421216E-002	6.1307736E-002	-3.806920442291791E-004	2.000000000000000E+000	-1.1919070E-004	2.3339368E-008
2	0	0	0	1	8.832579776870261E+001	5.8089156E-002	5.7982612E-002	-3.954910206231382E-004	2.000000000000000E+000	-1.1925783E-004	2.2931603E-008
2	0	0	1	1	8.849239776449394E+001	5.4757092E-002	5.4644540E-002	-4.101161322112011E-004	2.000000000000000E+000	-1.1932743E-004	2.2410607E-008
2	0	0	0	1	8.865899776028527E+001	5.1425032E-002	5.1296979E-002	-4.241528696638571E-004	2.000000000000000E+000	-1.1939942E-004	2.1757762E-008
2	0	0	1	1	8.882559775607660E+001	4.8092969E-002	4.7968678E-002	-4.375082167409686E-004	2.000000000000000E+000	-1.1947369E-004	2.0986691E-008
2	0	0	0	1	8.899219775186793E+001	4.4760909E-002	4.4625103E-002	-4.508418041344166E-004	2.000000000000000E+000	-1.1955018E-004	2.0118863E-008
2	0	0	1	1	8.915879774765926E+001	4.1429292E-002	4.1286826E-002	-4.633954973271104E-004	2.000000000000000E+000	-1.1962882E-004	1.9132129E-008
2	0	0	0	1	8.932539774345059E+001	3.8097229E-002	3.7958723E-002	-4.752550026521207E-004	2.000000000000000E+000	-1.1970950E-004	1.8040073E-008
2	0	0	1	1	8.949199773924192E+001	3.4765169E-002	3.4619380E-002	-4.872894428201461E-004	2.000000000000000E+000	-1.1979217E-004	1.6869658E-008
2	0	0	0	1	8.965859773503325E+001	3.1433109E-002	3.1279445E-002	-4.988384276574226E-004	2.000000000000000E+000	-1.1987680E-004	1.5603389E-008
2	0	0	1	1	8.982519773082458E+001	2.8101048E-002	2.7945189E-002	-5.098181866227845E-004	2.000000000000000E+000	-1.1996331E-004	1.4246965E-008
2	0	0	0	1	8.999179772661591E+001	2.4768986E-002	2.4613913E-002	-5.207996653612741E-004	2.000000000000000E+000	-1.2005166E-004	1.2818917E-008
2	0	0	1	1	9.015839772240724E+001	2.1437367E-002	2.1282036E-002	-5.311588261496577E-004	2.000000000000000E+000	-1.2014178E-004	1.1304142E-008
2	0	0	0	1	9.032499771819857E+001	1.8105306E-002	1.7947106E-002	-5.412461320672222E-004	2.000000000000000E+000	-1.2023358E-004	9.7138013E-009
2	0	0	1	1	9.049159771398990E+001	1.4773244E-002	1.4625601E-002	-5.512250579968701E-004	2.000000000000000E+000	-1.2032710E-004	8.0619973E-009
2	0	0	0	1	9.065819770978123E+001	1.1441184E-002	1.1291772E-002	-5.610431498780017E-004	2.000000000000000E+000	-1.2042229E-004	6.3351715E-009
2	0	0	1	1	9.082479770557256E+001	8.1091234E-003	7.9398071E-003	-5.707126498754652E-004	2.000000000000000E+000	-1.2051911E-004	4.5313482E-009
2	0	0	0	1	9.099139770136389E+001	4.7770613E-003	4.6139592E-003	-5.800924421845693E-004	2.000000000000000E+000	-1.2061751E-004	2.6765228E-009
2	0	0	1	1	9.115799769715522E+001	1.4449999E-003	1.2570687E-003	-5.887841175601172E-004	2.000000000000000E+000	-1.2071744E-004	7.4014211E-010
2	0	0	1	1	9.132469769294403E+001	-1.8888398E-003	-2.0877125E-003	-5.985820965022487E-004	2.000000000000000E+000	-1.2081896E-004	1.2496674E-009
2	0	0	0	1	9.149129768873536E+001	-5.2209022E-003	-5.4090042E-003	-6.071875784216417E-004	2.000000000000000E+000	-1.2092194E-004	3.2842802E-009
2	0	0	1	1	9.165789768452669E+001	-8.5529657E-003	-8.7388176E-003	-6.162652662698633E-004	2.000000000000000E+000	-1.2102641E-004	5.3854299E-009
2	0	0	0	1	9.182449768031802E+001	-1.1885027E-002	-1.2079158E-002	-6.247246497490767E-004	2.000000000000000E+000	-1.2113235E-004	7.5461477E-009
2	0	0	1	1	9.199109767610935E+001	-1.5217091E-002	-1.5389657E-002	-6.328620496040775E-004	2.000000000000000E+000	-1.2123970E-004	9.7395301E-009
2	0	0	0	1	9.215769767190068E+001	-1.8549154E-002	-1.8744497E-002	-6.415850476914273E-004	2.000000000000000E+000	-1.2134844E-004	1.2026189E-008
2	0	0	1	1	9.232429766769201E+001	-2.1880772E-002	-2.2052884E-002	-6.495483072239568E-004	2.000000000000000E+000	-1.2145855E-004	1.4324414E-008
2	0	0	0	1	9.249089766348334E+001	-2.5212832E-002	-2.5375694E-002	-6.578041139611596E-004	2.000000000000000E+000	-1.2157004E-004	1.6692235E-008
2	0	0	1	1	9.265749765927467E+001	-2.8544893E-002	-2.8716095E-002	-6.657015783329220E-004	2.000000000000000E+000	-1.2168290E-004	1.9116349E-008
2	0	0	0	1	9.282409765506600E+001	-3.1876959E-002	-3.2059196E-002	-6.737873329955022E-004	2.000000000000000E+000	-1.2179711E-004	2.1601080E-008
2	0	0	1	1	9.299069765085733E+001	-3.5209019E-002	-3.5381403E-002	-6.815285267305808E-004	2.000000000000000E+000	-1.2191264E-004	2.4113435E-008
2	0	0	0	1	9.315729764664866E+001	-3.8541082E-002	-3.8710754E-002	-6.891884924983046E-004	2.000000000000000E+000	-1.2202946E-004	2.6679006E-008
2	0	0	1	1	9.332389764243999E+001	-4.1872699E-002	-4.2062148E-002	-6.968941815755220E-004	2.000000000000000E+000	-1.2214758E-004	2.9312867E-008
2	0	0	0	1	9.349049763823132E+001	-4.5204766E-002	-4.5399375E-002	-7.041997513803216E-004	2.000000000000000E+000	-1.2226698E-004	3.1970227E-008
2	0	0	1	1	9.365709763402265E+001	-4.8536822E-002	-4.8716020E-002	-7.115658571951421E-004	2.000000000000000E+000	-1.2238760E-004	3.4664655E-008
2	0	0	0	1	9.382369762981398E+001	-5.1868889E-002	-5.2063584E-002	-7.194435274582647E-004	2.000000000000000E+000	-1.2250952E-004	3.7456807E-008
2	0	0	1	1	9.399029762560531E+001	-5.5200949E-002	-5.5397186E-002	-7.269134963461257E-004	2.000000000000000E+000	-1.2263271E-004	4.0268961E-008
2	0	0	0	1	9.415689762139664E+001	-5.8533013E-002	-5.8724701E-002	-7.342161962934036E-004	2.000000000000000E+000	-1.2275716E-004	4.3116628E-008
2	0	0	1	1	9.432359761718544E+001	-6.1866865E-002	-6.2075716E-002	-7.418672543634316E-004	2.000000000000000E+000	-1.2288294E-004	4.6051941E-008
2	0	0	0	1	9.449019761297677E+001	-6.5198921E-002	-6.5395221E-002	-7.494275899633384E-004	2.000000000000000E+000	-1.2300990E-004	4.9008982E-008
2	0	0	1	1	9.465679760876810E+001	-6.8530984E-002	-6.8736389E-002	-7.567368590026815E-004	2.000000000000000E+000	-1.2313813E-004	5.2015359E-008
2	0	0	0	1	9.482339760455943E+001	-7.1863048E-002	-7.2064102E-002	-7.640858587249586E-004	2.000000000000000E+000	-1.2326764E-004	5.5063161E-008
2	0	0	1	1	9.498999760035076E+001	-7.5195119E-002	-7.5389214E-002	-7.721038875246906E-004	2.000000000000000E+000	-1.2339845E-004	5.8208304E-008
2	0	0	0	1	9.515659759614209E+001	-7.8527175E-002	-7.8727260E-002	-7.793359772740940E-004	2.000000000000000E+000	-1.2353052E-004	6.1354989E-008
2	0	0	1	1	9.532319759193342E+001	-8.1859238E-002	-8.2052886E-002	-7.864165654174055E-004	2.000000000000000E+000	-1.2366382E-004	6.4527747E-008
2	0	0	0	1	9.548979758772475E+001	-8.5190862E-002	-8.5371770E-002	-7.944823501125154E-004	2.000000000000000E+000	-1.2379841E-004	6.7826363E-008
2	0	0	1	1	9.565639758351608E+001	-8.8522919E-002	-8.8711560E-002	-8.029820377777105E-004	2.000000000000000E+000	-1.2393443E-004	7.1233792E-008
2	0	0	0	1	9.582299757930741E+001	-9.1854982E-002	-9.2023134E-002	-8.116367848096965E-004	2.000000000000000E+000	-1.2407190E-004	7.4689360E-008
2	0	0	1	1	9.598959757509874E+001	-9.5187046E-002	-9.5370762E-002	-8.206132295691749E-004	2.000000000000000E+000	-1.2421088E-004	7.8262509E-008
2	0	0	0	1	9.615619757089007E+001	-9.8519094E-002	-9.8698653E-002	-8.296413570907364E-004	2.000000000000000E+000	-1.2435141E-004	8.1884487E-008
2	0	0	1	1	9.632279756668140E+001	-1.0185117E-001	-1.0202102E-001	-8.387322995311950E-004	2.000000000000000E+000	-1.2449348E-004	8.5568331E-008
2	0	0	0	1	9.648939756247273E+001	-1.0518279E-001	-1.0534596E-001	-8.485811354498546E-004	2.000000000000000E+000	-1.2463721E-004	8.9394590E-008
2	0	0	1	1	9.665599755826406E+001	-1.0851485E-001	-1.0868037E-001	-8.592866914193071E-004	2.000000000000000E+000	-1.2478266E-004	9.3387598E-008
2	0	0	0	1	9.682259755405539E+001	-1.1184691E-001	-1.1201215E-001	-8.701618438183290E-004	2.000000000000000E+000	-1.2492997E-004	9.7468700E-008
2	0	0	1	1	9.698919754984672E+001	-1.1517897E-001	-1.1533881E-001	-8.821889862473779E-004	2.000000000000000E+000	-1.2507926E-004	1.0175063E-007
2	0	0	0	1	9.715579754563805E+001	-1.1851104E-001	-1.1867991E-001	-8.950791582679925E-004	2.000000000000000E+000	-1.2523073E-004	1.0622792E-007
2	0	0	1	1	9.732239754142938E+001	-1.2184311E-001	-1.2201144E-001	-9.089974548176817E-004	2.000000000000000E+000	-1.2538450E-004	1.1090809E-007
2	0	0	0	1	9.750559753680136E+001	-1.2550721E-001	-1.2565789E-001	-9.250279613283608E-004	2.000000000000000E+000	-1.2555780E-004	1.1623706E-007
2	0	0	0	1	9.768889753217081E+001	-1.2917276E-001	-1.2933251E-001	-9.435923924447850E-004	2.000000000000000E+000	-1.2573415E-004	1.2203718E-007
2	0	0	1	1	9.785549752796214E+001	-1.3250481E-001	-1.3266829E-001	-9.623831484607027E-004	2.000000000000000E+000	-1.2589667E-004	1.2767772E-007
2	0	0	0	1	9.802209752375347E+001	-1.3583688E-001	-1.3599548E-001	-9.841439780213131E-004	2.000000000000000E+000	-1.2606267E-004	1.3383914E-007
2	0	0	1	1	9.818869751954480E+001	-1.3916893E-001	-1.3933249E-001	-1.008919973912826E-003	2.000000000000000E+000	-1.2623263E-004	1.4057532E-007
2	0	0	0	1	9.835529751533613E+001	-1.4250100E-001	-1.4266290E-001	-1.036244297956752E-003	2.000000000000000E+000	-1.2640700E-004	1.4783362E-007
2	0	0	1	1	9.852189751112746E+001	-1.4583306E-001	-1.4600123E-001	-1.067767830557570E-003	2.000000000000000E+000	-1.2658641E-004	1.5589542E-007
2	0	0	0	1	9.868859750691627E+001	-1.4916691E-001	-1.4934403E-001	-1.103112683589676E-003	2.000000000000000E+000	-1.2677163E-004	1.6474328E-007
2	0	0	1	1	9.885519750270760E+001	-1.5249898E-001	-1.5265389E-001	-1.144399168338549E-003	2.000000000000000E+000	-1.2696319E-004	1.7469698E-007
2	0	0	0	1	9.902179749849893E+001	-1.5583102E-001	-1.5599386E-001	-1.190896477864849E-003	2.000000000000000E+000	-1.2716219E-004	1.8577255E-007
2	0	0	1	1	9.918839749429026E+001	-1.5916312E-001	-1.5933363E-001	-1.244372008588042E-003	2.000000000000000E+000	-1.2736963E-004	1.9827031E-007
2	0	0	0	1	9.935499749008159E+001	-1.6249515E-001	-1.6268528E-001	-1.304207754407129E-003	2.000000000000000E+000	-1.2758662E-004	2.1217539E-007
2	0	0	1	1	9.952159748587292E+001	-1.6582723E-001	-1.6601020E-001	-1.370311177143962E-003	2.000000000000000E+000	-1.2781416E-004	2.2748563E-007
2	0	0	0	1	9.968819748166425E+001	-1.6915929E-001	-1.6934399E-001	-1.444608517561570E-003	2.000000000000000E+000	-1.2805357E-004	2.4463577E-007
2	0	0	1	1	9.985479747745558E+001	-1.7249091E-001	-1.7269582E-001	-1.526141115043924E-003	2.000000000000000E+000	-1.2830604E-004	2.6355818E-007
2	0	0	0	1	1.000213974732469E+002	-1.7582297E-001	-1.7602244E-001	-1.612015569037065E-003	2.000000000000000E+000	-1.2857259E-004	2.8375092E-007
2	0	0	1	1	1.001879974690382E+002	-1.7915502E-001	-1.7935519E-001	-1.704616741837854E-003	2.000000000000000E+000	-1.2885404E-004	3.0573185E-007
2	0	0	0	1	1.003545974648296E+002	-1.8248710E-001	-1.8268247E-001	-1.798454387878869E-003	2.000000000000000E+000	-1.2915109E-004	3.2854609E-007
2	0	0	1	1	1.005211974606209E+002	-1.8581918E-001	-1.8601689E-001	-1.891694540383536E-003	2.000000000000000E+000	-1.2946376E-004	3.5188714E-007
2	0	0	0	1	1.006877974564122E+002	-1.8915123E-001	-1.8934670E-001	-1.980056684485761E-003	2.000000000000000E+000	-1.2979159E-004	3.7491719E-007
2	0	0	1	1	1.008543974522036E+002	-1.9248283E-001	-1.9266844E-001	-2.060989987612415E-003	2.000000000000000E+000	-1.3013353E-004	3.9708772E-007
2	0	0	0	1	1.010209974479949E+002	-1.9581491E-001	-1.9599882E-001	-2.130558296559348E-003	2.000000000000000E+000	-1.3048798E-004	4.1758690E-007
2	0	0	1	1	1.011875974437862E+002	-1.9914697E-001	-1.9933560E-001	-2.188853459360738E-003	2.000000000000000E+000	-1.3085305E-004	4.3631644E-007
2	0	0	0	1	1.013541974395775E+002	-2.0247903E-001	-2.0266496E-001	-2.232801321480647E-003	2.000000000000000E+000	-1.3122660E-004	4.5251059E-007
2	0	0	1	1	1.015207974353689E+002	-2.0581110E-001	-2.0598744E-001	-2.262378112215137E-003	2.000000000000000E+000	-1.3160617E-004	4.6602148E-007
2	0	0	0	1	1.016873974311602E+002	-2.0914316E-001	-2.0931591E-001	-2.276379786545470E-003	2.000000000000000E+000	-1.3198928E-004	4.7648251E-007
2	0	0	1	1	1.018539974269515E+002	-2.1247478E-001	-2.1268727E-001	-2.283666515978982E-003	2.000000000000000E+000	-1.3237413E-004	4.8570678E-007
2	0	0	0	1	1.020205974227429E+002	-2.1580683E-001	-2.1603101E-001	-2.280033948205806E-003	2.000000000000000E+000	-1.3275917E-004	4.9255806E-007
2	0	0	1	1	1.021871974185342E+002	-2.1913888E-001	-2.1934852E-001	-2.268308915054910E-003	2.000000000000000E+000	-1.3314279E-004	4.9755022E-007
2	0	0	0	1	1.023537974143255E+002	-2.2247098E-001	-2.2268322E-001	-2.254726654035484E-003	2.000000000000000E+000	-1.3352426E-004	5.0208979E-007
2	0	0	1	1	1.025203974101169E+002	-2.2580303E-001	-2.2603032E-001	-2.236672509446640E-003	2.000000000000000E+000	-1.3390306E-004	5.0555582E-007
2	0	0	0	1	1.026869974059082E+002	-2.2913508E-001	-2.2933894E-001	-2.218726619141166E-003	2.000000000000000E+000	-1.3427889E-004	5.0884040E-007
2	0	0	1	1	1.028535974016995E+002	-2.3246717E-001	-2.3267892E-001	-2.200465579631536E-003	2.000000000000000E+000	-1.3465149E-004	5.1200198E-007
2	0	0	0	1	1.030201973974908E+002	-2.3579878E-001	-2.3598604E-001	-2.181519003611136E-003	2.000000000000000E+000	-1.3502095E-004	5.1480805E-007
2	0	0	1	1	1.031867973932822E+002	-2.3913085E-001	-2.3931877E-001	-2.163288263211355E-003	2.000000000000000E+000	-1.3538731E-004	5.1771548E-007
2	0	0	0	1	1.033533973890735E+002	-2.4246290E-001	-2.4264966E-001	-2.148205355100970E-003	2.000000000000000E+000	-1.3575083E-004	5.2126131E-007
2	0	0	1	1	1.035199973848648E+002	-2.4579497E-001	-2.4599661E-001	-2.132714684947547E-003	2.000000000000000E+000	-1.3611170E-004	5.2464060E-007
2	0	0	0	1	1.036865973806562E+002	-2.4912702E-001	-2.4931353E-001	-2.117558581598442E-003	2.000000000000000E+000	-1.3646999E-004	5.2793604E-007
2	0	0	1	1	1.038531973764475E+002	-2.5245908E-001	-2.5266004E-001	-2.104140849783869E-003	2.000000000000000E+000	-1.3682590E-004	5.3163228E-007
2	0	0	0	1	1.040197973722388E+002	-2.5579071E-001	-2.5597012E-001	-2.092100524810507E-003	2.000000000000000E+000	-1.3717957E-004	5.3551520E-007
2	0	0	1	1	1.041863973680302E+002	-2.5912279E-001	-2.5929117E-001	-2.080230826337938E-003	2.000000000000000E+000	-1.3753117E-004	5.3938550E-007
2	0	0	0	1	1.043529973638215E+002	-2.6245484E-001	-2.6262581E-001	-2.070717343539870E-003	2.000000000000000E+000	-1.3788095E-004	5.4382383E-007
2	0	0	1	1	1.045195973596128E+002	-2.6578689E-001	-2.6597703E-001	-2.061192874932343E-003	2.000000000000000E+000	-1.3822909E-004	5.4822993E-007
2	0	0	0	1	1.046861973554041E+002	-2.6911896E-001	-2.6928318E-001	-2.052583701504233E-003	2.000000000000000E+000	-1.3857569E-004	5.5272625E-007
2	0	0	1	1	1.048527973511955E+002	-2.7245104E-001	-2.7262285E-001	-2.045549465450998E-003	2.000000000000000E+000	-1.3892096E-004	5.5766355E-007
2	0	0	0	1	1.050193973469868E+002	-2.7578264E-001	-2.7596009E-001	-2.038074594101200E-003	2.000000000000000E+000	-1.3926494E-004	5.6242726E-007
2	0	0	1	1	1.051859973427781E+002	-2.7911469E-001	-2.7928522E-001	-2.032846508884356E-003	2.000000000000000E+000	-1.3960783E-004	5.6774400E-007
2	0	0	0	1	1.053525973385695E+002	-2.8244677E-001	-2.8261101E-001	-2.027775235492787E-003	2.000000000000000E+000	-1.3994981E-004	5.7307159E-007
2	0	0	1	1	1.055191973343608E+002	-2.8577885E-001	-2.8594223E-001	-2.023606294327785E-003	2.000000000000000E+000	-1.4029103E-004	5.7863451E-007
2	0	0	0	1	1.056857973301521E+002	-2.8911093E-001	-2.8928810E-001	-2.019922939755898E-003	2.000000000000000E+000	-1.4063157E-004	5.8433966E-007
2	0	0	1	1	1.058523973259435E+002	-2.9244295E-001	-2.9261968E-001	-2.017393696071967E-003	2.000000000000000E+000	-1.4097153E-004	5.9032908E-007
2	0	0	0	1	1.060189973217348E+002	-2.9577503E-001	-2.9595920E-001	-2.015352520368652E-003	2.000000000000000E+000	-1.4131109E-004	5.9646214E-007
2	0	0	1	1	1.061855973175261E+002	-2.9910707E-001	-2.9931572E-001	-2.013684916969245E-003	2.000000000000000E+000	-1.4165031E-004	6.0272754E-007
2	0	0	1	1	1.063522973133149E+002	-3.0244088E-001	-3.0263096E-001	-2.012001817806951E-003	2.000000000000000E+000	-1.4198943E-004	6.0889403E-007
2	0	0	0	1	1.065188973091063E+002	-3.0577293E-001	-3.0596900E-001	-2.011210447750534E-003	2.000000000000000E+000	-1.4232815E-004	6.1536804E-007
2	0	0	1	1	1.066854973048976E+002	-3.0910501E-001	-3.0931365E-001	-2.011172099775319E-003	2.000000000000000E+000	-1.4266680E-004	6.2208301E-007
2	0	0	0	1	1.068520973006889E+002	-3.1243706E-001	-3.1262690E-001	-2.011330806711459E-003	2.000000000000000E+000	-1.4300545E-004	6.2879610E-007
2	0	0	1	1	1.070186972964802E+002	-3.1576917E-001	-3.1597129E-001	-2.012142629408735E-003	2.000000000000000E+000	-1.4334418E-004	6.3577932E-007
2	0	0	0	1	1.071852972922716E+002	-3.1910077E-001	-3.1929815E-001	-2.013512938851842E-003	2.000000000000000E+000	-1.4368305E-004	6.4291095E-007
2	0	0	1	1	1.073518972880629E+002	-3.2243282E-001	-3.2262623E-001	-2.014985575575494E-003	2.000000000000000E+000	-1.4402212E-004	6.5008720E-007
2	0	0	0	1	1.075184972838542E+002	-3.2576489E-001	-3.2595071E-001	-2.017571098860676E-003	2.000000000000000E+000	-1.4436158E-004	6.5762873E-007
2	0	0	1	1	1.076850972796456E+002	-3.2909694E-001	-3.2929230E-001	-2.020472010881347E-003	2.000000000000000E+000	-1.4470144E-004	6.6532584E-007
2	0	0	0	1	1.078516972754369E+002	-3.3242902E-001	-3.3262277E-001	-2.023213756596415E-003	2.000000000000000E+000	-1.4504179E-004	6.7296696E-007
2	0	0	1	1	1.080182972712282E+002	-3.3576107E-001	-3.3595854E-001	-2.026908759583796E-003	2.000000000000000E+000	-1.4538270E-004	6.8095733E-007
2	0	0	0	1	1.081848972670196E+002	-3.3909312E-001	-3.3932161E-001	-2.030861944922642E-003	2.000000000000000E+000	-1.4572419E-004	6.8911532E-007
2	0	0	1	1	1.083514972628109E+002	-3.4242475E-001	-3.4265348E-001	-2.034911009201019E-003	2.000000000000000E+000	-1.4606639E-004	6.9726934E-007
2	0	0	0	1	1.085180972586022E+002	-3.4575680E-001	-3.4599432E-001	-2.039612673865626E-003	2.000000000000000E+000	-1.4640931E-004	7.0569439E-007
2	0	0	1	1	1.086846972543935E+002	-3.4908888E-001	-3.4932816E-001	-2.045361516052072E-003	2.000000000000000E+000	-1.4675305E-004	7.1450239E-007
2	0	0	0	1	1.088512972501849E+002	-3.5242093E-001	-3.5266560E-001	-2.050643701264114E-003	2.000000000000000E+000	-1.4709769E-004	7.2319148E-007
2	0	0	1	1	1.090178972459762E+002	-3.5575297E-001	-3.5597163E-001	-2.056276272904327E-003	2.000000000000000E+000	-1.4744326E-004	7.3197600E-007
2	0	0	0	1	1.091844972417675E+002	-3.5908505E-001	-3.5930857E-001	-2.062929340425880E-003	2.000000000000000E+000	-1.4778991E-004	7.4122818E-007
2	0	0	1	1	1.093511972375563E+002	-3.6241892E-001	-3.6261863E-001	-2.069492673043995E-003	2.000000000000000E+000	-1.4813786E-004	7.5043658E-007
2	0	0	0	1	1.095177972333477E+002	-3.6575097E-001	-3.6594802E-001	-2.076739917063851E-003	2.000000000000000E+000	-1.4848672E-004	7.5997889E-007
2	0	0	1	1	1.096843972291390E+002	-3.6908305E-001	-3.6929435E-001	-2.084605596116909E-003	2.000000000000000E+000	-1.4883683E-004	7.6983304E-007
2	0	0	0	1	1.098509972249303E+002	-3.7241513E-001	-3.7261817E-001	-2.092338888190690E-003	2.000000000000000E+000	-1.4918827E-004	7.7964347E-007
2	0	0	1	1	1.100175972207217E+002	-3.7574720E-001	-3.7595093E-001	-2.100523546368678E-003	2.000000000000000E+000	-1.4954108E-004	7.8969379E-007
2	0	0	0	1	1.101841972165130E+002	-3.7907925E-001	-3.7927929E-001	-2.109197690711394E-003	2.000000000000000E+000	-1.4989529E-004	7.9997500E-007
2	0	0	1	1	1.103507972123043E+002	-3.8241085E-001	-3.8264376E-001	-2.119080786428466E-003	2.000000000000000E+000	-1.5025106E-004	8.1085307E-007
2	0	0	0	1	1.105173972080956E+002	-3.8574296E-001	-3.8597149E-001	-2.129236490422350E-003	2.000000000000000E+000	-1.5060848E-004	8.2182459E-007
2	0	0	1	1	1.106839972038870E+002	-3.8907498E-001	-3.8929427E-001	-2.138976282932747E-003	2.000000000000000E+000	-1.5096756E-004	8.3269123E-007
2	0	0	0	1	1.108505971996783E+002	-3.9240706E-001	-3.9262834E-001	-2.149823185998170E-003	2.000000000000000E+000	-1.5132834E-004	8.4408151E-007
2	0	0	1	1	1.110171971954696E+002	-3.9573911E-001	-3.9596143E-001	-2.161056827436302E-003	2.000000000000000E+000	-1.5169094E-004	8.5569513E-007
2	0	0	0	1	1.111837971912610E+002	-3.9907116E-001	-3.9930829E-001	-2.172238904306289E-003	2.000000000000000E+000	-1.5205541E-004	8.6739300E-007
2	0	0	1	1	1.113503971870523E+002	-4.0240327E-001	-4.0262249E-001	-2.185092336088676E-003	2.000000000000000E+000	-1.5242188E-004	8.7976730E-007
2	0	0	0	1	1.115169971828436E+002	-4.0573487E-001	-4.0593258E-001	-2.197498025579062E-003	2.000000000000000E+000	-1.5279045E-004	8.9203604E-007
2	0	0	1	1	1.116835971786350E+002	-4.0906692E-001	-4.0927050E-001	-2.210319646071574E-003	2.000000000000000E+000	-1.5316115E-004	9.0461862E-007
2	0	0	0	1	1.118501971744263E+002	-4.1239899E-001	-4.1259393E-001	-2.223359972771760E-003	2.000000000000000E+000	-1.5353401E-004	9.1734483E-007
2	0	0	1	1	1.120167971702176E+002	-4.1573104E-001	-4.1594237E-001	-2.237834881335166E-003	2.000000000000000E+000	-1.5390926E-004	9.3081036E-007
2	0	0	0	1	1.121833971660089E+002	-4.1906312E-001	-4.1927361E-001	-2.252703462771302E-003	2.000000000000000E+000	-1.5428691E-004	9.4449911E-007
2	0	0	1	1	1.123499971618003E+002	-4.2239520E-001	-4.2262438E-001	-2.265938539065357E-003	2.000000000000000E+000	-1.5466688E-004	9.5764085E-007
2	0	0	0	1	1.125165971575916E+002	-4.2572680E-001	-4.2594337E-001	-2.281506055904645E-003	2.000000000000000E+000	-1.5504926E-004	9.7179236E-007
2	0	0	1	1	1.126831971533829E+002	-4.2905885E-001	-4.2925075E-001	-2.297448627489783E-003	2.000000000000000E+000	-1.5543423E-004	9.8618159E-007
2	0	0	0	1	1.128497971491743E+002	-4.3239090E-001	-4.3257588E-001	-2.313137113243192E-003	2.000000000000000E+000	-1.5582185E-004	1.0006073E-006
2	0	0	1	1	1.130163971449656E+002	-4.3572301E-001	-4.3590966E-001	-2.329749472394185E-003	2.000000000000000E+000	-1.5621221E-004	1.0155603E-006
2	0	0	0	1	1.131829971407569E+002	-4.3905506E-001	-4.3924901E-001	-2.347779414873349E-003	2.000000000000000E+000	-1.5660547E-004	1.0312598E-006
2	0	0	1	1	1.133495971365483E+002	-4.4238710E-001	-4.4258791E-001	-2.366348957554922E-003	2.000000000000000E+000	-1.5700179E-004	1.0473175E-006
2	0	0	0	1	1.135161971323396E+002	-4.4571915E-001	-4.4591218E-001	-2.385995615589175E-003	2.000000000000000E+000	-1.5740131E-004	1.0639445E-006
2	0	0	1	1	1.136827971281309E+002	-4.4905081E-001	-4.4924322E-001	-2.406939886921228E-003	2.000000000000000E+000	-1.5780420E-004	1.0813014E-006
2	0	0	0	1	1.138493971239222E+002	-4.5238286E-001	-4.5256057E-001	-2.426183371386652E-003	2.000000000000000E+000	-1.5821042E-004	1.0979950E-006
2	0	0	1	1	1.140159971197136E+002	-4.5571491E-001	-4.5590389E-001	-2.447144033378604E-003	2.000000000000000E+000	-1.5862007E-004	1.1156625E-006
2	0	0	0	1	1.141825971155049E+002	-4.5904696E-001	-4.5924366E-001	-2.469014914114866E-003	2.000000000000000E+000	-1.5903325E-004	1.1338794E-006
2	0	0	1	1	1.143491971112962E+002	-4.6237904E-001	-4.6256307E-001	-2.491253692282827E-003	2.000000000000000E+000	-1.5945009E-004	1.1523620E-006
2	0	0	0	1	1.145157971070876E+002	-4.6571109E-001	-4.6590599E-001	-2.513313454057767E-003	2.000000000000000E+000	-1.5987060E-004	1.1709678E-006
2	0	0	1	1	1.146823971028789E+002	-4.6904275E-001	-4.6925679E-001	-2.536388155493903E-003	2.000000000000000E+000	-1.6029492E-004	1.1902174E-006
2	0	0	0	1	1.148489970986702E+002	-4.7237480E-001	-4.7258633E-001	-2.559332484098210E-003	2.000000000000000E+000	-1.6072311E-004	1.2095055E-006
2	0	0	1	1	1.150155970944616E+002	-4.7570691E-001	-4.7590092E-001	-2.583278586417766E-003	2.000000000000000E+000	-1.6115517E-004	1.2293847E-006
2	0	0	0	1	1.151821970902529E+002	-4.7903889E-001	-4.7924721E-001	-2.606007958535441E-003	2.000000000000000E+000	-1.6159115E-004	1.2489221E-006
2	0	0	1	1	1.153487970860442E+002	-4.8237100E-001	-4.8260394E-001	-2.629867825898295E-003	2.000000000000000E+000	-1.6203101E-004	1.2691846E-006
2	0	0	0	1	1.155153970818355E+002	-4.8570305E-001	-4.8592046E-001	-2.653754814374475E-003	2.000000000000000E+000	-1.6247490E-004	1.2895138E-006
2	0	0	1	1	1.156819970776269E+002	-4.8903468E-001	-4.8925042E-001	-2.679460980914254E-003	2.000000000000000E+000	-1.6292291E-004	1.3109274E-006
2	0	0	0	1	1.158485970734182E+002	-4.9236673E-001	-4.9257189E-001	-2.705136238377585E-003	2.000000000000000E+000	-1.6337520E-004	1.3324741E-006
2	0	0	1	1	1.160151970692095E+002	-4.9569878E-001	-4.9589911E-001	-2.730142229653391E-003	2.000000000000000E+000	-1.6383170E-004	1.3538751E-006
2	0	0	0	1	1.161817970650009E+002	-4.9903089E-001	-4.9923792E-001	-2.756672684740787E-003	2.000000000000000E+000	-1.6429249E-004	1.3762356E-006
2	0	0	1	1	1.163483970607922E+002	-5.0236291E-001	-5.0257427E-001	-2.782954192421781E-003	2.000000000000000E+000	-1.6475764E-004	1.3986412E-006
2	0	0	0	1	1.165149970565835E+002	-5.0569499E-001	-5.0591755E-001	-2.809588992277654E-003	2.000000000000000E+000	-1.6522726E-004	1.4214204E-006
2	0	0	1	1	1.166815970523749E+002	-5.0902706E-001	-5.0925732E-001	-2.836974986698240E-003	2.000000000000000E+000	-1.6570144E-004	1.4447503E-006
2	0	0	1	1	1.168482970481637E+002	-5.1236081E-001	-5.1257217E-001	-2.865328504372711E-003	2.000000000000000E+000	-1.6618050E-004	1.4686876E-006
2	0	0	0	1	1.170148970439550E+002	-5.1569289E-001	-5.1591676E-001	-2.892952014491926E-003	2.000000000000000E+000	-1.6666396E-004	1.4925224E-006
2	0	0	1	1	1.171814970397463E+002	-5.1902497E-001	-5.1924217E-001	-2.923033675035630E-003	2.000000000000000E+000	-1.6715222E-004	1.5177624E-006
2	0	0	0	1	1.173480970355376E+002	-5.2235705E-001	-5.2256471E-001	-2.953669800408960E-003	2.000000000000000E+000	-1.6764551E-004	1.5434836E-006
2	0	0	1	1	1.175146970313290E+002	-5.2568913E-001	-5.2588946E-001	-2.984996170443675E-003	2.000000000000000E+000	-1.6814398E-004	1.5697780E-006
2	0	0	0	1	1.176812970271203E+002	-5.2902114E-001	-5.2923989E-001	-3.015964151733941E-003	2.000000000000000E+000	-1.6864762E-004	1.5961685E-006
2	0	0	1	1	1.178478970229116E+002	-5.3235275E-001	-5.3255981E-001	-3.046703974181005E-003	2.000000000000000E+000	-1.6915644E-004	1.6225521E-006
2	0	0	0	1	1.180144970187030E+002	-5.3568482E-001	-5.3586853E-001	-3.078354790127115E-003	2.000000000000000E+000	-1.6967053E-004	1.6495934E-006
2	0	0	1	1	1.181810970144943E+002	-5.3901696E-001	-5.3920078E-001	-3.111067985559414E-003	2.000000000000000E+000	-1.7019002E-004	1.6774903E-006
2	0	0	0	1	1.183476970102856E+002	-5.4234898E-001	-5.4255688E-001	-3.145234492733663E-003	2.000000000000000E+000	-1.7071505E-004	1.7064687E-006
2	0	0	1	1	1.185142970060770E+002	-5.4568100E-001	-5.4587859E-001	-3.178374639438417E-003	2.000000000000000E+000	-1.7124566E-004	1.7350067E-006
2	0	0	0	1	1.186808970018683E+002	-5.4901308E-001	-5.4919720E-001	-3.212029785206615E-003	2.000000000000000E+000	-1.7178187E-004	1.7640377E-006
2	0	0	1	1	1.188474969976596E+002	-5.5234516E-001	-5.5253965E-001	-3.247445599188069E-003	2.000000000000000E+000	-1.7232387E-004	1.7943424E-006
2	0	0	0	1	1.190140969934509E+002	-5.5567676E-001	-5.5588549E-001	-3.282836043610814E-003	2.000000000000000E+000	-1.7287178E-004	1.8248809E-006
2	0	0	1	1	1.191806969892423E+002	-5.5900884E-001	-5.5920601E-001	-3.320034313573209E-003	2.000000000000000E+000	-1.7342571E-004	1.8565831E-006
2	0	0	0	1	1.193472969850336E+002	-5.6234086E-001	-5.6254911E-001	-3.355926588986402E-003	2.000000000000000E+000	-1.7398578E-004	1.8878735E-006
2	0	0	1	1	1.195138969808249E+002	-5.6567293E-001	-5.6590837E-001	-3.393392029433034E-003	2.000000000000000E+000	-1.7455194E-004	1.9203490E-006
2	0	0	0	1	1.196804969766163E+002	-5.6900501E-001	-5.6921470E-001	-3.429954488594948E-003	2.000000000000000E+000	-1.7512422E-004	1.9523804E-006
2	0	0	1	1	1.198471969724051E+002	-5.7233888E-001	-5.7255667E-001	-3.468093096451672E-003	2.000000000000000E+000	-1.7570307E-004	1.9856798E-006
2	0	0	0	1	1.200137969681964E+002	-5.7567096E-001	-5.7589281E-001	-3.505764292379765E-003	2.000000000000000E+000	-1.7628797E-004	2.0189445E-006
2	0	0	1	1	1.201803969639877E+002	-5.7900304E-001	-5.7921249E-001	-3.545023377011194E-003	2.000000000000000E+000	-1.7687927E-004	2.0533219E-006
2	0	0	0	1	1.203469969597791E+002	-5.8233505E-001	-5.8252740E-001	-3.584392035302433E-003	2.000000000000000E+000	-1.7747709E-004	2.0880066E-006
2	0	0	1	1	1.205135969555704E+002	-5.8566719E-001	-5.8587271E-001	-3.623677278277858E-003	2.000000000000000E+000	-1.7808148E-004	2.1230137E-006
2	0	0	0	1	1.206801969513617E+002	-5.8899927E-001	-5.8921540E-001	-3.664115524922594E-003	2.000000000000000E+000	-1.7869256E-004	2.1589533E-006
2	0	0	1	1	1.208467969471531E+002	-5.9233123E-001	-5.9253860E-001	-3.705105787954459E-003	2.000000000000000E+000	-1.7931040E-004	2.1954181E-006
2	0	0	0	1	1.210133969429444E+002	-5.9566295E-001	-5.9586459E-001	-3.745479368820914E-003	2.000000000000000E+000	-1.7993506E-004	2.2317986E-006
2	0	0	1	1	1.211632969391576E+002	-5.9866077E-001	-5.9885150E-001	-3.783978824722777E-003	2.000000000000000E+000	-1.8050268E-004	2.2660413E-006
2	0	0	0	1	1.212219969376747E+002	-6.0016018E-001	-6.0036319E-001	-3.951943479478359E-003	2.000000000000000E+000	-1.8072625E-004	2.3726013E-006