EC-Lab ASCII FILE
Nb header lines : 53                          

Cyclic Voltammetry

Run on channel : 1 (SN 0696)
User : 
Electrode connection : standard
Ewe ctrl range : min = -10.00 V, max = 10.00 V
Ewe,I filtering : 50 kHz
Channel : Grounded
Acquisition started on : 05/17/2017 12:14:48
Saved on :
	File : 100 uM MB 10mM PB Second ITO_06_CV_C01.mpr
	Directory : \\userfs\st659\w2k\EC-Lab\Data\ITO Characterisation 17-5-17\
	Host : 144.32.136.43
Device : SP-300 (SN 0182)
Address : USB
EC-Lab for windows v10.44 (software)
Internet server v10.44 (firmware)
Command interpretor v10.44 (firmware)
Electrode material : 
Initial state : 
Electrolyte : 
Comments : 
Cable : standard
Electrode surface area : 0.001 cm²
Characteristic mass : 0.001 g
Equivalent Weight : 0.000 g/eq.
Density : 0.000 g/cm3
Ei (V)              0.000               
vs.                 Eoc                 
dE/dt               1000.000            
dE/dt unit          mV/s                
E1 (V)              0.100               
vs.                 Ref                 
Step percent        50                  
N                   10                  
E range min (V)     -10.000             
E range max (V)     10.000              
I Range             Auto                
I Range min         Unset               
I Range max         Unset               
I Range init        Unset               
Bandwidth           8                   
E2 (V)              -0.600              
vs.                 Ref                 
nc cycles           2                   
Reverse Scan        1                   
Ef (V)              0.000               
vs.                 Eoc                 

mode	ox/red	error	control changes	counter inc.	time/s	control/V	Ewe/V	<I>/mA	cycle number	(Q-Qo)/C	P/W
2	1	0	0	1	4.185659894261335E+002	-6.0016018E-001	-6.0034031E-001	-1.143420953303576E-002	2.000000000000000E+000	-5.7252964E-006	6.8644167E-006
2	1	0	1	1	4.185676894260905E+002	-5.9839433E-001	-5.9861088E-001	-9.833006160867274E-003	2.000000000000000E+000	-5.7420912E-006	5.8861447E-006
2	1	0	0	1	4.185710894260046E+002	-5.9499568E-001	-5.9521669E-001	-8.175608755846019E-003	2.000000000000000E+000	-5.7722855E-006	4.8662587E-006
2	1	0	1	1	4.185744894259187E+002	-5.9159690E-001	-5.9181911E-001	-7.338003909596102E-003	2.000000000000000E+000	-5.7984043E-006	4.3427708E-006
2	1	0	1	1	4.185776894258379E+002	-5.8839816E-001	-5.8862275E-001	-6.816299949908455E-003	2.000000000000000E+000	-5.8208561E-006	4.0122291E-006
2	1	0	0	1	4.185810894257520E+002	-5.8499944E-001	-5.8521605E-001	-6.393505788097775E-003	2.000000000000000E+000	-5.8431115E-006	3.7415821E-006
2	1	0	1	1	4.185844894256661E+002	-5.8160073E-001	-5.8180362E-001	-6.045313324223894E-003	2.000000000000000E+000	-5.8640831E-006	3.5171852E-006
2	1	0	1	1	4.185876894255853E+002	-5.7840192E-001	-5.7860458E-001	-5.771875062358336E-003	2.000000000000000E+000	-5.8828259E-006	3.3396334E-006
2	1	0	0	1	4.185910894254994E+002	-5.7500321E-001	-5.7521850E-001	-5.511429833313736E-003	2.000000000000000E+000	-5.9018275E-006	3.1702764E-006
2	1	0	1	1	4.185944894254135E+002	-5.7160455E-001	-5.7180804E-001	-5.273983418919673E-003	2.000000000000000E+000	-5.9200038E-006	3.0157062E-006
2	1	0	1	1	4.185976894253326E+002	-5.6840575E-001	-5.6862277E-001	-5.072630012364247E-003	2.000000000000000E+000	-5.9364042E-006	2.8844129E-006
2	1	0	0	1	4.186010894252468E+002	-5.6500709E-001	-5.6521791E-001	-4.877060639895095E-003	2.000000000000000E+000	-5.9531476E-006	2.7566020E-006
2	1	0	1	1	4.186044894251609E+002	-5.6160837E-001	-5.6182057E-001	-4.692971849514532E-003	2.000000000000000E+000	-5.9692666E-006	2.6366081E-006
2	1	0	1	1	4.186076894250800E+002	-5.5840963E-001	-5.5861247E-001	-4.534601837440297E-003	2.000000000000000E+000	-5.9838862E-006	2.5330851E-006
2	1	0	0	1	4.186110894249941E+002	-5.5501086E-001	-5.5524325E-001	-4.379715277415605E-003	2.000000000000000E+000	-5.9988752E-006	2.4318074E-006
2	1	0	1	1	4.186144894249082E+002	-5.5161214E-001	-5.5180573E-001	-4.219667437943497E-003	2.000000000000000E+000	-6.0133452E-006	2.3284367E-006
2	1	0	1	1	4.186176894248274E+002	-5.4841334E-001	-5.4860991E-001	-4.098293381988097E-003	2.000000000000000E+000	-6.0265047E-006	2.2483644E-006
2	1	0	0	1	4.186210894247415E+002	-5.4501462E-001	-5.4522049E-001	-3.966239832940727E-003	2.000000000000000E+000	-6.0400425E-006	2.1624753E-006
2	1	0	1	1	4.186244894246556E+002	-5.4161602E-001	-5.4179895E-001	-3.836462222595101E-003	2.000000000000000E+000	-6.0531602E-006	2.0785913E-006
2	1	0	1	1	4.186276894245748E+002	-5.3841728E-001	-5.3860366E-001	-3.726733522701871E-003	2.000000000000000E+000	-6.0651159E-006	2.0072323E-006
2	1	0	0	1	4.186310894244889E+002	-5.3501850E-001	-5.3520763E-001	-3.618339904339046E-003	2.000000000000000E+000	-6.0774391E-006	1.9365632E-006
2	1	0	1	1	4.186344894244030E+002	-5.3161979E-001	-5.3182852E-001	-3.512704853801549E-003	2.000000000000000E+000	-6.0894126E-006	1.8681567E-006
2	1	0	1	1	4.186376894243222E+002	-5.2842098E-001	-5.2861434E-001	-3.407997759647209E-003	2.000000000000000E+000	-6.1003466E-006	1.8015165E-006
2	1	0	0	1	4.186410894242363E+002	-5.2502227E-001	-5.2522576E-001	-3.312342988283486E-003	2.000000000000000E+000	-6.1116166E-006	1.7397278E-006
2	1	0	1	1	4.186444894241504E+002	-5.2162355E-001	-5.2183813E-001	-3.217742918271434E-003	2.000000000000000E+000	-6.1225801E-006	1.6791410E-006
2	1	0	1	1	4.186476894240695E+002	-5.1842481E-001	-5.1863682E-001	-3.126957115940354E-003	2.000000000000000E+000	-6.1325923E-006	1.6217551E-006
2	1	0	0	1	4.186510894239836E+002	-5.1502615E-001	-5.1523608E-001	-3.048223467521888E-003	2.000000000000000E+000	-6.1429287E-006	1.5705547E-006
2	1	0	1	1	4.186544894238978E+002	-5.1162744E-001	-5.1185161E-001	-2.959090434978870E-003	2.000000000000000E+000	-6.1529981E-006	1.5146152E-006
2	1	0	1	1	4.186576894238169E+002	-5.0842869E-001	-5.0865269E-001	-2.883306461353642E-003	2.000000000000000E+000	-6.1622054E-006	1.4666016E-006
2	1	0	0	1	4.186610894237310E+002	-5.0502998E-001	-5.0524783E-001	-2.801152844858733E-003	2.000000000000000E+000	-6.1717124E-006	1.4152764E-006
2	1	0	1	1	4.186644894236451E+002	-5.0163126E-001	-5.0183606E-001	-2.723677952387031E-003	2.000000000000000E+000	-6.1809728E-006	1.3668398E-006
2	1	0	1	1	4.186676894235643E+002	-4.9843243E-001	-4.9865106E-001	-2.652979010084284E-003	2.000000000000000E+000	-6.1894361E-006	1.3229107E-006
2	1	0	0	1	4.186710894234784E+002	-4.9503371E-001	-4.9522468E-001	-2.580881784615484E-003	2.000000000000000E+000	-6.1981718E-006	1.2781163E-006
2	1	0	1	1	4.186744894233925E+002	-4.9163502E-001	-4.9182689E-001	-2.513450339392870E-003	2.000000000000000E+000	-6.2066970E-006	1.2361825E-006
2	1	0	1	1	4.186776894233117E+002	-4.8843628E-001	-4.8864779E-001	-2.452973022082004E-003	2.000000000000000E+000	-6.2145068E-006	1.1986399E-006
2	1	0	0	1	4.186810894232258E+002	-4.8503757E-001	-4.8524582E-001	-2.382515884088818E-003	2.000000000000000E+000	-6.2225749E-006	1.1561059E-006
2	1	0	1	1	4.186844894231399E+002	-4.8163885E-001	-4.8184946E-001	-2.325089619140873E-003	2.000000000000000E+000	-6.2304439E-006	1.1203432E-006
2	1	0	1	1	4.186876894230591E+002	-4.7844008E-001	-4.7864935E-001	-2.258611899029955E-003	2.000000000000000E+000	-6.2376348E-006	1.0810832E-006
2	1	0	0	1	4.186910894229732E+002	-4.7504136E-001	-4.7525114E-001	-2.192426275451003E-003	2.000000000000000E+000	-6.2450408E-006	1.0419531E-006
2	1	0	1	1	4.186944894228873E+002	-4.7164261E-001	-4.7184917E-001	-2.138496351684199E-003	2.000000000000000E+000	-6.2522595E-006	1.0090478E-006
2	1	0	1	1	4.186976894228064E+002	-4.6844384E-001	-4.6864992E-001	-2.078845386510388E-003	2.000000000000000E+000	-6.2588647E-006	9.7425072E-007
2	1	0	0	1	4.187010894227205E+002	-4.6504512E-001	-4.6521792E-001	-2.012469036738671E-003	2.000000000000000E+000	-6.2656563E-006	9.3623663E-007
2	1	0	1	1	4.187044894226347E+002	-4.6164650E-001	-4.6183053E-001	-1.960217313247394E-003	2.000000000000000E+000	-6.2722734E-006	9.0528818E-007
2	1	0	1	1	4.187228894221698E+002	-4.4321814E-001	-4.4338536E-001	-1.652604560214828E-003	2.000000000000000E+000	-6.3057350E-006	7.3274066E-007
2	1	0	1	1	4.187412894217050E+002	-4.2479384E-001	-4.2497259E-001	-1.390435160753137E-003	2.000000000000000E+000	-6.3382813E-006	5.9089683E-007
2	1	0	0	1	4.187446894216191E+002	-4.2139512E-001	-4.2157209E-001	-1.337818616396667E-003	2.000000000000000E+000	-6.3428456E-006	5.6398699E-007
2	1	0	1	1	4.187480894215332E+002	-4.1799641E-001	-4.1817570E-001	-1.292978556981931E-003	2.000000000000000E+000	-6.3472626E-006	5.4069221E-007
2	1	0	1	1	4.187512894214524E+002	-4.1479766E-001	-4.1497126E-001	-1.243274986245524E-003	2.000000000000000E+000	-6.3512716E-006	5.1592338E-007
2	1	0	0	1	4.187546894213665E+002	-4.1139898E-001	-4.1155672E-001	-1.192034190338139E-003	2.000000000000000E+000	-6.3553398E-006	4.9058968E-007
2	1	0	1	1	4.187580894212806E+002	-4.0800026E-001	-4.0818822E-001	-1.153564230624703E-003	2.000000000000000E+000	-6.3592738E-006	4.7087133E-007
2	1	0	1	1	4.187612894211998E+002	-4.0480149E-001	-4.0496403E-001	-1.104773628048859E-003	2.000000000000000E+000	-6.3628408E-006	4.4739357E-007
2	1	0	0	1	4.187646894211139E+002	-4.0140277E-001	-4.0162075E-001	-1.067572600186393E-003	2.000000000000000E+000	-6.3664666E-006	4.2875931E-007
2	1	0	1	1	4.187680894210280E+002	-3.9800403E-001	-3.9820340E-001	-1.017237183070086E-003	2.000000000000000E+000	-6.3699554E-006	4.0506731E-007
2	1	0	1	1	4.187712894209471E+002	-3.9480528E-001	-3.9500397E-001	-9.758567058573385E-004	2.000000000000000E+000	-6.3730954E-006	3.8546727E-007
2	1	0	0	1	4.187746894208613E+002	-3.9140657E-001	-3.9159045E-001	-9.246337531673486E-004	2.000000000000000E+000	-6.3762523E-006	3.6207774E-007
2	1	0	1	1	4.187780894207754E+002	-3.8800782E-001	-3.8820884E-001	-8.840924732642921E-004	2.000000000000000E+000	-6.3792668E-006	3.4321252E-007
2	1	0	1	1	4.187812894206945E+002	-3.8480908E-001	-3.8499740E-001	-8.403611461896346E-004	2.000000000000000E+000	-6.3819753E-006	3.2353685E-007
2	1	0	0	1	4.187846894206086E+002	-3.8141039E-001	-3.8161197E-001	-7.886537600673670E-004	2.000000000000000E+000	-6.3846760E-006	3.0095973E-007
2	1	0	1	1	4.187880894205227E+002	-3.7801170E-001	-3.7817362E-001	-7.439090331596756E-004	2.000000000000000E+000	-6.3872262E-006	2.8132678E-007
2	1	0	1	1	4.187912894204419E+002	-3.7481293E-001	-3.7499821E-001	-7.082299903383160E-004	2.000000000000000E+000	-6.3895027E-006	2.6558499E-007
2	1	0	0	1	4.187946894203560E+002	-3.7141421E-001	-3.7158325E-001	-6.605137685104026E-004	2.000000000000000E+000	-6.3917555E-006	2.4543584E-007
2	1	0	1	1	4.187980894202701E+002	-3.6801547E-001	-3.6816543E-001	-6.126030372191355E-004	2.000000000000000E+000	-6.3938601E-006	2.2553927E-007
2	1	0	1	1	4.188012894201893E+002	-3.6481670E-001	-3.6499226E-001	-5.784141126582631E-004	2.000000000000000E+000	-6.3957136E-006	2.1111667E-007
2	1	0	0	1	4.188046894201034E+002	-3.6141804E-001	-3.6158323E-001	-5.336820783933636E-004	2.000000000000000E+000	-6.3975281E-006	1.9297049E-007
2	1	0	1	1	4.188080894200175E+002	-3.5801929E-001	-3.5818812E-001	-4.850720327037070E-004	2.000000000000000E+000	-6.3992084E-006	1.7374704E-007
2	1	0	1	1	4.188112894199367E+002	-3.5482055E-001	-3.5501856E-001	-4.456026398846299E-004	2.000000000000000E+000	-6.4006481E-006	1.5819721E-007
2	1	0	0	1	4.188146894198508E+002	-3.5142183E-001	-3.5161147E-001	-3.995114141048337E-004	2.000000000000000E+000	-6.4020123E-006	1.4047279E-007
2	1	0	1	1	4.188180894197649E+002	-3.4802312E-001	-3.4819379E-001	-3.465020144024812E-004	2.000000000000000E+000	-6.4032256E-006	1.2064986E-007
2	1	0	1	1	4.188212894196840E+002	-3.4482434E-001	-3.4500727E-001	-3.083804261336805E-004	2.000000000000000E+000	-6.4042224E-006	1.0639349E-007
2	1	0	0	1	4.188246894195981E+002	-3.4142563E-001	-3.4159309E-001	-2.622866236814980E-004	2.000000000000000E+000	-6.4051223E-006	8.9595297E-008
2	1	0	1	1	4.188280894195123E+002	-3.3802694E-001	-3.3818886E-001	-2.026820535490971E-004	2.000000000000000E+000	-6.4058581E-006	6.8544814E-008
2	1	0	1	1	4.188312894194314E+002	-3.3482814E-001	-3.3498317E-001	-1.629622177764154E-004	2.000000000000000E+000	-6.4063952E-006	5.4589599E-008
2	1	0	0	1	4.188346894193455E+002	-3.3142945E-001	-3.3159533E-001	-1.208557908010254E-004	2.000000000000000E+000	-6.4068058E-006	4.0075214E-008
2	1	0	1	1	4.188380894192596E+002	-3.2803074E-001	-3.2816154E-001	-6.605870178570206E-005	2.000000000000000E+000	-6.4070719E-006	2.1677925E-008
2	1	0	1	1	4.188412894191788E+002	-3.2483196E-001	-3.2496402E-001	-2.150975789637268E-005	2.000000000000000E+000	-6.4071660E-006	6.9898971E-009
2	1	0	0	1	4.188446894190929E+002	-3.2143328E-001	-3.2158750E-001	2.235257927600813E-005	2.000000000000000E+000	-6.4070973E-006	7.1883099E-009
2	1	0	1	1	4.188480894190070E+002	-3.1803456E-001	-3.1819850E-001	7.087871358208992E-005	2.000000000000000E+000	-6.4068818E-006	2.2553500E-008
2	1	0	1	1	4.188512894189262E+002	-3.1483579E-001	-3.1498289E-001	1.265518502255721E-004	2.000000000000000E+000	-6.4065161E-006	3.9861668E-008
2	1	0	0	1	4.188546894188403E+002	-3.1143704E-001	-3.1161207E-001	1.767271016149152E-004	2.000000000000000E+000	-6.4059323E-006	5.5070299E-008
2	1	0	1	1	4.188580894187544E+002	-3.0803835E-001	-3.0820200E-001	2.354111074472106E-004	2.000000000000000E+000	-6.4051733E-006	7.2554172E-008
2	1	0	1	1	4.188612894186736E+002	-3.0483955E-001	-3.0497837E-001	2.949330156828489E-004	2.000000000000000E+000	-6.4042711E-006	8.9948188E-008
2	1	0	0	1	4.188646894185877E+002	-3.0144086E-001	-3.0160147E-001	3.468806808011021E-004	2.000000000000000E+000	-6.4031033E-006	1.0461972E-007
2	1	0	1	1	4.188680894185018E+002	-2.9804218E-001	-2.9819277E-001	4.120670932403914E-004	2.000000000000000E+000	-6.4017572E-006	1.2287543E-007
2	1	0	1	1	4.188712894184209E+002	-2.9484338E-001	-2.9496279E-001	4.817481530797829E-004	2.000000000000000E+000	-6.4002734E-006	1.4209778E-007
2	1	0	0	1	4.188746894183350E+002	-2.9144469E-001	-2.9157636E-001	5.383863398302925E-004	2.000000000000000E+000	-6.3984617E-006	1.5698073E-007
2	1	0	1	1	4.188780894182491E+002	-2.8804597E-001	-2.8817397E-001	6.055282267349565E-004	2.000000000000000E+000	-6.3964608E-006	1.7449747E-007
2	1	0	1	1	4.188812894181683E+002	-2.8484720E-001	-2.8496769E-001	6.806359777025760E-004	2.000000000000000E+000	-6.3943512E-006	1.9395927E-007
2	1	0	0	1	4.188846894180824E+002	-2.8144848E-001	-2.8155300E-001	7.508561608043848E-004	2.000000000000000E+000	-6.3918428E-006	2.1140580E-007
2	1	0	1	1	4.188880894179965E+002	-2.7804977E-001	-2.7816412E-001	8.302475256717419E-004	2.000000000000000E+000	-6.3891057E-006	2.3094508E-007
2	1	0	1	1	4.188912894179157E+002	-2.7485102E-001	-2.7497610E-001	9.013031079196758E-004	2.000000000000000E+000	-6.3862817E-006	2.4783682E-007
2	1	0	0	1	4.188946894178298E+002	-2.7138567E-001	-2.7152368E-001	1.019416148399919E-003	2.000000000000000E+000	-6.3829470E-006	2.7679562E-007
2	1	0	0	1	4.188978894177490E+002	-2.6818690E-001	-2.6832458E-001	1.088433520006524E-003	2.000000000000000E+000	-6.3795237E-006	2.9205347E-007
2	1	0	1	1	4.189012894176631E+002	-2.6478818E-001	-2.6493090E-001	1.190189019075661E-003	2.000000000000000E+000	-6.3755715E-006	3.1531786E-007
2	1	0	0	1	4.189046894175772E+002	-2.6138949E-001	-2.6151267E-001	1.290863685138293E-003	2.000000000000000E+000	-6.3712946E-006	3.3757721E-007
2	1	0	0	1	4.189078894174963E+002	-2.5819069E-001	-2.5832066E-001	1.391164603182914E-003	2.000000000000000E+000	-6.3669490E-006	3.5936657E-007
2	1	0	1	1	4.189112894174104E+002	-2.5479200E-001	-2.5494316E-001	1.496390003133761E-003	2.000000000000000E+000	-6.3619595E-006	3.8149440E-007
2	1	0	0	1	4.189146894173246E+002	-2.5139329E-001	-2.5154138E-001	1.627816816486910E-003	2.000000000000000E+000	-6.3565867E-006	4.0946327E-007
2	1	0	0	1	4.189178894172437E+002	-2.4819452E-001	-2.4833944E-001	1.754532811719401E-003	2.000000000000000E+000	-6.3511156E-006	4.3571970E-007
2	1	0	1	1	4.189212894171578E+002	-2.4479580E-001	-2.4495481E-001	1.890749163370252E-003	2.000000000000000E+000	-6.3448315E-006	4.6314810E-007
2	1	0	0	1	4.189246894170719E+002	-2.4139708E-001	-2.4154493E-001	2.048064525903712E-003	2.000000000000000E+000	-6.3380639E-006	4.9469963E-007
2	1	0	0	1	4.189278894169911E+002	-2.3819830E-001	-2.3833619E-001	2.191175040843523E-003	2.000000000000000E+000	-6.3312236E-006	5.2223629E-007
2	1	0	1	1	4.189312894169052E+002	-2.3479961E-001	-2.3495421E-001	2.355831953612633E-003	2.000000000000000E+000	-6.3234174E-006	5.5351262E-007
2	1	0	0	1	4.189346894168193E+002	-2.3140091E-001	-2.3156957E-001	2.531754377984419E-003	2.000000000000000E+000	-6.3150405E-006	5.8627728E-007
2	1	0	0	1	4.189378894167385E+002	-2.2820212E-001	-2.2836614E-001	2.711406048153245E-003	2.000000000000000E+000	-6.3065891E-006	6.1919332E-007
2	1	0	1	1	4.189412894166526E+002	-2.2480342E-001	-2.2496572E-001	2.912315412201383E-003	2.000000000000000E+000	-6.2969489E-006	6.5517116E-007
2	1	0	0	1	4.189446894165667E+002	-2.2140470E-001	-2.2155716E-001	3.128814622868965E-003	2.000000000000000E+000	-6.2866116E-006	6.9321129E-007
2	1	0	0	1	4.189478894164859E+002	-2.1820594E-001	-2.1835859E-001	3.325279200847339E-003	2.000000000000000E+000	-6.2762201E-006	7.2610328E-007
2	1	0	1	1	4.189512894164000E+002	-2.1480724E-001	-2.1496159E-001	3.555973147619310E-003	2.000000000000000E+000	-6.2644272E-006	7.6439761E-007
2	1	0	0	1	4.189546894163141E+002	-2.1140853E-001	-2.1154077E-001	3.802161456739372E-003	2.000000000000000E+000	-6.2518448E-006	8.0431215E-007
2	1	0	0	1	4.189578894162332E+002	-2.0820975E-001	-2.0833407E-001	4.047126362699285E-003	2.000000000000000E+000	-6.2392173E-006	8.4315434E-007
2	1	0	1	1	4.189612894161473E+002	-2.0481107E-001	-2.0494588E-001	4.275615319996496E-003	2.000000000000000E+000	-6.2249815E-006	8.7626972E-007
2	1	0	0	1	4.189646894160614E+002	-2.0141234E-001	-2.0153321E-001	4.548384302628026E-003	2.000000000000000E+000	-6.2099039E-006	9.1665049E-007
2	1	0	0	1	4.189678894159806E+002	-1.9821355E-001	-1.9834213E-001	4.802699635426198E-003	2.000000000000000E+000	-6.1948758E-006	9.5257769E-007
2	1	0	1	1	4.189712894158947E+002	-1.9481486E-001	-1.9495456E-001	5.071075239660196E-003	2.000000000000000E+000	-6.1779965E-006	9.8862927E-007
2	1	0	0	1	4.189746894158088E+002	-1.9141616E-001	-1.9154193E-001	5.368874480457947E-003	2.000000000000000E+000	-6.1601759E-006	1.0283645E-006
2	1	0	0	1	4.189778894157280E+002	-1.8821737E-001	-1.8835454E-001	5.641489044986264E-003	2.000000000000000E+000	-6.1424885E-006	1.0626001E-006
2	1	0	1	1	4.189812894156421E+002	-1.8481867E-001	-1.8496732E-001	5.924457880913281E-003	2.000000000000000E+000	-6.1227383E-006	1.0958311E-006
2	1	0	0	1	4.189846894155562E+002	-1.8141997E-001	-1.8156080E-001	6.220675145717343E-003	2.000000000000000E+000	-6.1020150E-006	1.1294308E-006
2	1	0	0	1	4.189878894154754E+002	-1.7822118E-001	-1.7837849E-001	6.523688532009450E-003	2.000000000000000E+000	-6.0815532E-006	1.1636857E-006
2	1	0	1	1	4.189912894153895E+002	-1.7482248E-001	-1.7496295E-001	6.785154911510015E-003	2.000000000000000E+000	-6.0588313E-006	1.1871507E-006
2	1	0	0	1	4.189946894153036E+002	-1.7142379E-001	-1.7156506E-001	7.077800611720406E-003	2.000000000000000E+000	-6.0351849E-006	1.2143032E-006
2	1	0	0	1	4.189978894152227E+002	-1.6822501E-001	-1.6837183E-001	7.366745196304710E-003	2.000000000000000E+000	-6.0120037E-006	1.2403524E-006
2	1	0	1	1	4.190012894151369E+002	-1.6482630E-001	-1.6495320E-001	7.635209010489558E-003	2.000000000000000E+000	-5.9863974E-006	1.2594521E-006
2	1	0	0	1	4.190046894150510E+002	-1.6142757E-001	-1.6154909E-001	7.899100650744617E-003	2.000000000000000E+000	-5.9599088E-006	1.2760926E-006
2	1	0	0	1	4.190078894149701E+002	-1.5822878E-001	-1.5832952E-001	8.167200452893042E-003	2.000000000000000E+000	-5.9341319E-006	1.2931089E-006
2	1	0	1	1	4.190112894148842E+002	-1.5483008E-001	-1.5493850E-001	8.428586405413302E-003	2.000000000000000E+000	-5.9058198E-006	1.3059125E-006
2	1	0	0	1	4.190146894147983E+002	-1.5143138E-001	-1.5153924E-001	8.657050563306262E-003	2.000000000000000E+000	-5.8766923E-006	1.3118828E-006
2	1	0	0	1	4.190178894147175E+002	-1.4823261E-001	-1.4835769E-001	8.865296668106273E-003	2.000000000000000E+000	-5.8485871E-006	1.3152350E-006
2	1	0	1	1	4.190212894146316E+002	-1.4483391E-001	-1.4494848E-001	9.084752836194372E-003	2.000000000000000E+000	-5.8179917E-006	1.3168211E-006
2	1	0	0	1	4.190246894145457E+002	-1.4143519E-001	-1.4154881E-001	9.233242986920256E-003	2.000000000000000E+000	-5.7867837E-006	1.3069546E-006
2	1	0	0	1	4.190278894144649E+002	-1.3823643E-001	-1.3835496E-001	9.397628868282520E-003	2.000000000000000E+000	-5.7569232E-006	1.3002085E-006
2	1	0	1	1	4.190312894143790E+002	-1.3483772E-001	-1.3496101E-001	9.542460777083747E-003	2.000000000000000E+000	-5.7246375E-006	1.2878602E-006
2	1	0	0	1	4.190346894142931E+002	-1.3143902E-001	-1.3155437E-001	9.640232807820795E-003	2.000000000000000E+000	-5.6919553E-006	1.2682148E-006
2	1	0	0	1	4.190528894138333E+002	-1.1324189E-001	-1.1336301E-001	9.562016039743715E-003	2.000000000000000E+000	-5.5159940E-006	1.0839790E-006
2	1	0	1	1	4.190712894133685E+002	-9.4786309E-002	-9.4933510E-002	9.294518489696202E-003	2.000000000000000E+000	-5.3387062E-006	8.8236123E-007
2	1	0	1	1	4.190744894132877E+002	-9.1587536E-002	-9.1732755E-002	9.175750574892533E-003	2.000000000000000E+000	-5.3090362E-006	8.4171688E-007
2	1	0	0	1	4.190778894132018E+002	-8.8188834E-002	-8.8343382E-002	9.016922915725450E-003	2.000000000000000E+000	-5.2779787E-006	7.9658548E-007
2	1	0	1	1	4.190812894131159E+002	-8.4790133E-002	-8.4957592E-002	8.851522620898316E-003	2.000000000000000E+000	-5.2474875E-006	7.5200404E-007
2	1	0	1	1	4.190844894130350E+002	-8.1591353E-002	-8.1745788E-002	8.703806247649507E-003	2.000000000000000E+000	-5.2192731E-006	7.1149952E-007
2	1	0	0	1	4.190878894129492E+002	-7.8192644E-002	-7.8360997E-002	8.555480227005367E-003	2.000000000000000E+000	-5.1898005E-006	6.7041594E-007
2	1	0	1	1	4.190912894128633E+002	-7.4793927E-002	-7.4961595E-002	8.392660812872522E-003	2.000000000000000E+000	-5.1608645E-006	6.2912727E-007
2	1	0	1	1	4.190944894127824E+002	-7.1595155E-002	-7.1749911E-002	8.241791208759737E-003	2.000000000000000E+000	-5.1341294E-006	5.9134777E-007
2	1	0	0	1	4.190978894126965E+002	-6.8196453E-002	-6.8368815E-002	8.083739176436219E-003	2.000000000000000E+000	-5.1062434E-006	5.5267566E-007
2	1	0	1	1	4.191012894126106E+002	-6.4797744E-002	-6.4946137E-002	7.927453890442845E-003	2.000000000000000E+000	-5.0789063E-006	5.1485750E-007
2	1	0	1	1	4.191044894125298E+002	-6.1598968E-002	-6.1775785E-002	7.793214790763184E-003	2.000000000000000E+000	-5.0536332E-006	4.8143198E-007
2	1	0	0	1	4.191078894124439E+002	-5.8200262E-002	-5.8370266E-002	7.658923677990953E-003	2.000000000000000E+000	-5.0272297E-006	4.4705342E-007
2	1	0	1	1	4.191112894123580E+002	-5.4801557E-002	-5.4972384E-002	7.520030845686684E-003	2.000000000000000E+000	-5.0013036E-006	4.1339402E-007
2	1	0	1	1	4.191144894122772E+002	-5.1602773E-002	-5.1782701E-002	7.389821239545805E-003	2.000000000000000E+000	-4.9773171E-006	3.8266489E-007
2	1	0	0	1	4.191178894121913E+002	-4.8204072E-002	-4.8368800E-002	7.272909217802714E-003	2.000000000000000E+000	-4.9522514E-006	3.5178189E-007
2	1	0	1	1	4.191212894121054E+002	-4.4805367E-002	-4.4979565E-002	7.142266945205256E-003	2.000000000000000E+000	-4.9276318E-006	3.2125607E-007
2	1	0	1	1	4.191244894120246E+002	-4.1606586E-002	-4.1778944E-002	7.054570450115261E-003	2.000000000000000E+000	-4.9047949E-006	2.9473250E-007
2	1	0	0	1	4.191278894119387E+002	-3.8207881E-002	-3.8348757E-002	6.934251879586850E-003	2.000000000000000E+000	-4.8808688E-006	2.6591994E-007
2	1	0	1	1	4.191312894118528E+002	-3.4809180E-002	-3.4939565E-002	6.837058443064370E-003	2.000000000000000E+000	-4.8573361E-006	2.3888384E-007
2	1	0	1	1	4.191344894117719E+002	-3.1610399E-002	-3.1773150E-002	6.756544966871551E-003	2.000000000000000E+000	-4.8354632E-006	2.1467672E-007
2	1	0	0	1	4.191378894116860E+002	-2.8211696E-002	-2.8352121E-002	6.667691744951309E-003	2.000000000000000E+000	-4.8124989E-006	1.8904321E-007
2	1	0	1	1	4.191412894116002E+002	-2.4812989E-002	-2.4951572E-002	6.563976060109181E-003	2.000000000000000E+000	-4.7898848E-006	1.6378152E-007
2	1	0	1	1	4.191444894115193E+002	-2.1614209E-002	-2.1742811E-002	6.495108193363824E-003	2.000000000000000E+000	-4.7688645E-006	1.4122192E-007
2	1	0	0	1	4.191478894114334E+002	-1.8215504E-002	-1.8380031E-002	6.393376455222699E-003	2.000000000000000E+000	-4.7468188E-006	1.1751046E-007
2	1	0	1	1	4.191512894113475E+002	-1.4816800E-002	-1.4980245E-002	6.330572751236746E-003	2.000000000000000E+000	-4.7250574E-006	9.4833531E-008
2	1	0	1	1	4.191544894112667E+002	-1.1618019E-002	-1.1765248E-002	6.274722507866203E-003	2.000000000000000E+000	-4.7047552E-006	7.3823671E-008
2	1	0	0	1	4.191578894111808E+002	-8.2193157E-003	-8.3708027E-003	6.209605090831821E-003	2.000000000000000E+000	-4.6833852E-006	5.1979381E-008
2	1	0	1	1	4.191612894110949E+002	-4.8206109E-003	-4.9766111E-003	6.140151937203572E-003	2.000000000000000E+000	-4.6622681E-006	3.0557150E-008
2	1	0	1	1	4.191644894110141E+002	-1.6218303E-003	-1.7888338E-003	6.075415988076788E-003	2.000000000000000E+000	-4.6425976E-006	1.0867909E-008
2	1	0	0	1	4.191678894109282E+002	1.7768735E-003	1.6307936E-003	6.028376616025843E-003	2.000000000000000E+000	-4.6218693E-006	9.8310373E-009
2	1	0	1	1	4.191712894108423E+002	5.1755765E-003	5.0425348E-003	5.976671830527893E-003	2.000000000000000E+000	-4.6013256E-006	3.0137574E-008
2	1	0	1	1	4.191744894107615E+002	8.3743557E-003	8.2390867E-003	5.918762092854510E-003	2.000000000000000E+000	-4.5821694E-006	4.8765195E-008
2	1	0	0	1	4.191778894106756E+002	1.1773058E-002	1.1657823E-002	5.860955047198038E-003	2.000000000000000E+000	-4.5619990E-006	6.8325974E-008
2	1	0	1	1	4.191812894105897E+002	1.5171762E-002	1.5073505E-002	5.813648682305952E-003	2.000000000000000E+000	-4.5420147E-006	8.7632067E-008
2	1	0	1	1	4.191844894105088E+002	1.8370541E-002	1.8262807E-002	5.764982008925779E-003	2.000000000000000E+000	-4.5233537E-006	1.0528476E-007
2	1	0	0	1	4.191878894104229E+002	2.1769242E-002	2.1655474E-002	5.721502461225709E-003	2.000000000000000E+000	-4.5036759E-006	1.2390184E-007
2	1	0	1	1	4.191912894103370E+002	2.5167944E-002	2.5047377E-002	5.686159656094484E-003	2.000000000000000E+000	-4.4841554E-006	1.4242339E-007
2	1	0	1	1	4.191944894102562E+002	2.8366724E-002	2.8256642E-002	5.640976298491279E-003	2.000000000000000E+000	-4.4659073E-006	1.5939504E-007
2	1	0	0	1	4.191978894101703E+002	3.1765427E-002	3.1642187E-002	5.603954880765122E-003	2.000000000000000E+000	-4.4466437E-006	1.7732140E-007
2	1	0	1	1	4.192012894100844E+002	3.5164129E-002	3.5051260E-002	5.576277974372094E-003	2.000000000000000E+000	-4.4275048E-006	1.9545557E-007
2	1	0	1	1	4.192044894100036E+002	3.8362909E-002	3.8232289E-002	5.528946686536085E-003	2.000000000000000E+000	-4.4096041E-006	2.1138429E-007
2	1	0	0	1	4.192078894099177E+002	4.1761611E-002	4.1636147E-002	5.512164917551372E-003	2.000000000000000E+000	-4.3906903E-006	2.2950530E-007
2	1	0	1	1	4.192112894098318E+002	4.5160316E-002	4.5040514E-002	5.478296487369055E-003	2.000000000000000E+000	-4.3718778E-006	2.4674529E-007
2	1	0	1	1	4.192144894097510E+002	4.8359092E-002	4.8273824E-002	5.440792334532790E-003	2.000000000000000E+000	-4.3542714E-006	2.6264786E-007
2	1	0	0	1	4.192178894096651E+002	5.1757798E-002	5.1671699E-002	5.417132557037518E-003	2.000000000000000E+000	-4.3356663E-006	2.7991243E-007
2	1	0	1	1	4.192212894095792E+002	5.5156503E-002	5.5059534E-002	5.388273481366931E-003	2.000000000000000E+000	-4.3171658E-006	2.9667584E-007
2	1	0	1	1	4.192244894094983E+002	5.8355279E-002	5.8282156E-002	5.356782757856615E-003	2.000000000000000E+000	-4.2998404E-006	3.1220483E-007
2	1	0	0	1	4.192278894094125E+002	6.1753988E-002	6.1677620E-002	5.343573759152301E-003	2.000000000000000E+000	-4.2815100E-006	3.2957891E-007
2	1	0	1	1	4.192312894093266E+002	6.5152690E-002	6.5064944E-002	5.310823907651266E-003	2.000000000000000E+000	-4.2632723E-006	3.4554847E-007
2	1	0	1	1	4.192344894092457E+002	6.8351462E-002	6.8228930E-002	5.289732394097288E-003	2.000000000000000E+000	-4.2461706E-006	3.6091279E-007
2	1	0	0	1	4.192378894091598E+002	7.1750171E-002	7.1651869E-002	5.271374551557531E-003	2.000000000000000E+000	-4.2280644E-006	3.7770383E-007
2	1	0	1	1	4.192411894090765E+002	7.5058430E-002	7.4947618E-002	5.256520009489951E-003	2.000000000000000E+000	-4.2105644E-006	3.9396366E-007
2	1	0	1	1	4.192444894089931E+002	7.8414291E-002	7.8312553E-002	5.249431466836554E-003	2.000000000000000E+000	-4.1930707E-006	4.1109638E-007
2	1	0	0	1	4.192478894089072E+002	8.1812993E-002	8.1710435E-002	5.209562186064415E-003	2.000000000000000E+000	-4.1751655E-006	4.2567561E-007
2	1	0	0	1	4.192510894088264E+002	8.5011773E-002	8.4902786E-002	5.199226411059493E-003	2.000000000000000E+000	-4.1583871E-006	4.4142880E-007
2	1	0	1	1	4.192544894087405E+002	8.8410482E-002	8.8279307E-002	5.177728128243547E-003	2.000000000000000E+000	-4.1406083E-006	4.5708626E-007
2	1	0	0	1	4.192578894086546E+002	9.1809183E-002	9.1685712E-002	5.155428972890799E-003	2.000000000000000E+000	-4.1229146E-006	4.7267918E-007
2	1	0	0	1	4.192610894085738E+002	9.5007949E-002	9.4894335E-002	5.153242443399597E-003	2.000000000000000E+000	-4.1062922E-006	4.8901353E-007
2	1	0	1	1	4.192642894084929E+002	9.8201618E-002	9.8085009E-002	5.139365306604320E-003	2.000000000000000E+000	-4.0896866E-006	5.0409471E-007
2	1	0	0	1	4.192659894084500E+002	9.9906117E-002	9.9795513E-002	5.142944864928722E-003	2.000000000000000E+000	-4.0808754E-006	5.1324281E-007
2	0	0	1	1	4.192663894084399E+002	1.0023932E-001	1.0012364E-001	5.100609734654427E-003	2.000000000000000E+000	-4.0788136E-006	5.1069162E-007
2	0	0	1	1	4.192682894083919E+002	9.8340020E-002	9.8229267E-002	3.633568333195097E-003	2.000000000000000E+000	-4.0716259E-006	3.5692275E-007
2	0	0	1	1	4.192714894083110E+002	9.5141239E-002	9.5018581E-002	2.666084442565372E-003	2.000000000000000E+000	-4.0618283E-006	2.5332756E-007
2	0	0	0	1	4.192748894082251E+002	9.1742538E-002	9.1624022E-002	2.251922564270589E-003	2.000000000000000E+000	-4.0536793E-006	2.0633020E-007
2	0	0	1	1	4.192782894081392E+002	8.8343829E-002	8.8206939E-002	1.981586394670859E-003	2.000000000000000E+000	-4.0466507E-006	1.7478968E-007
2	0	0	1	1	4.192814894080584E+002	8.5145049E-002	8.5015595E-002	1.784530050099417E-003	2.000000000000000E+000	-4.0407772E-006	1.5171288E-007
2	0	0	0	1	4.192848894079725E+002	8.1746340E-002	8.1627384E-002	1.611247427157045E-003	2.000000000000000E+000	-4.0351706E-006	1.3152192E-007
2	0	0	1	1	4.192882894078866E+002	7.8347646E-002	7.8248583E-002	1.456691508807732E-003	2.000000000000000E+000	-4.0301084E-006	1.1398404E-007
2	0	0	1	1	4.192914894078058E+002	7.5082228E-002	7.4956775E-002	1.292130300619950E-003	2.000000000000000E+000	-4.0258537E-006	9.6853917E-008
2	0	0	0	1	4.192948894077199E+002	7.1683526E-002	7.1561813E-002	1.184461156693340E-003	2.000000000000000E+000	-4.0217833E-006	8.4762185E-008
2	0	0	0	1	4.192980894076391E+002	6.8484738E-002	6.8371758E-002	1.077821864934474E-003	2.000000000000000E+000	-4.0183031E-006	7.3692576E-008
2	0	0	1	1	4.193014894075532E+002	6.5086037E-002	6.4985827E-002	9.738141866591880E-004	2.000000000000000E+000	-4.0149785E-006	6.3284119E-008
2	0	0	0	1	4.193048894074673E+002	6.1687339E-002	6.1580833E-002	8.608436513289595E-004	2.000000000000000E+000	-4.0119944E-006	5.3011469E-008
2	0	0	0	1	4.193080894073864E+002	5.8488563E-002	5.8406536E-002	7.769992591647665E-004	2.000000000000000E+000	-4.0095115E-006	4.5381835E-008
2	0	0	1	1	4.193114894073005E+002	5.5089854E-002	5.4986399E-002	6.774793322544305E-004	2.000000000000000E+000	-4.0071964E-006	3.7252150E-008
2	0	0	0	1	4.193148894072147E+002	5.1691152E-002	5.1596027E-002	5.875453382903596E-004	2.000000000000000E+000	-4.0051768E-006	3.0315004E-008
2	0	0	0	1	4.193180894071338E+002	4.8492379E-002	4.8400622E-002	5.153590379867040E-004	2.000000000000000E+000	-4.0035525E-006	2.4943699E-008
2	0	0	1	1	4.193214894070479E+002	4.5093674E-002	4.4982389E-002	4.242554275871637E-004	2.000000000000000E+000	-4.0021137E-006	1.9084023E-008
2	0	0	0	1	4.193248894069620E+002	4.1694973E-002	4.1557170E-002	3.495646347611604E-004	2.000000000000000E+000	-4.0009413E-006	1.4526917E-008
2	0	0	0	1	4.193280894068812E+002	3.8496193E-002	3.8374990E-002	2.833917985829744E-004	2.000000000000000E+000	-4.0000718E-006	1.0875158E-008
2	0	0	1	1	4.193314894067953E+002	3.5097491E-002	3.4972407E-002	2.033487327253165E-004	2.000000000000000E+000	-3.9994020E-006	7.1115944E-009
2	0	0	0	1	4.193348894067094E+002	3.1698786E-002	3.1573635E-002	1.326753818242804E-004	2.000000000000000E+000	-3.9989714E-006	4.1890442E-009
2	0	0	0	1	4.193380894066286E+002	2.8500007E-002	2.8366145E-002	6.921047329531907E-005	2.000000000000000E+000	-3.9987863E-006	1.9632342E-009
2	0	0	1	1	4.193414894065427E+002	2.5101306E-002	2.4973357E-002	2.668951272048267E-006	2.000000000000000E+000	-3.9988254E-006	6.6652676E-011
2	0	0	0	1	4.193448894064568E+002	2.1702601E-002	2.1576114E-002	-6.340218708468601E-005	2.000000000000000E+000	-3.9990673E-006	1.3679728E-009
2	0	0	0	1	4.193480894063759E+002	1.8503822E-002	1.8374091E-002	-1.252652178521884E-004	2.000000000000000E+000	-3.9995025E-006	2.3016344E-009
2	0	0	1	1	4.193514894062901E+002	1.5105120E-002	1.4984098E-002	-1.874587930312066E-004	2.000000000000000E+000	-4.0001855E-006	2.8089009E-009
2	0	0	0	1	4.193548894062042E+002	1.1706417E-002	1.1566888E-002	-2.549157018809944E-004	2.000000000000000E+000	-4.0010736E-006	2.9485814E-009
2	0	0	0	1	4.193580894061233E+002	8.5076373E-003	8.3621964E-003	-3.099898231046908E-004	2.000000000000000E+000	-4.0021114E-006	2.5921958E-009
2	0	0	1	1	4.193614894060374E+002	5.1089348E-003	4.9727126E-003	-3.656996003201136E-004	2.000000000000000E+000	-4.0034261E-006	1.8185190E-009
2	0	0	0	1	4.193648894059515E+002	1.7102322E-003	1.5584278E-003	-4.344278033727254E-004	2.000000000000000E+000	-4.0049249E-006	6.7702438E-010
2	0	0	0	1	4.193830894054918E+002	-1.6513126E-002	-1.6722050E-002	-7.850507969544315E-004	2.000000000000000E+000	-4.0149453E-006	1.3127658E-008
2	0	0	1	1	4.194014894050270E+002	-3.4875818E-002	-3.5072464E-002	-1.068443614030910E-003	2.000000000000000E+000	-4.0262116E-006	3.7472951E-008
2	0	0	0	1	4.194048894049411E+002	-3.8274523E-002	-3.8461056E-002	-1.118754889125738E-003	2.000000000000000E+000	-4.0299842E-006	4.3028493E-008
2	0	0	0	1	4.194080894048602E+002	-4.1473307E-002	-4.1693732E-002	-1.178398853858197E-003	2.000000000000000E+000	-4.0337109E-006	4.9131845E-008
2	0	0	1	1	4.194114894047743E+002	-4.4872008E-002	-4.5081563E-002	-1.228206678903613E-003	2.000000000000000E+000	-4.0378741E-006	5.5369476E-008
2	0	0	0	1	4.194148894046884E+002	-4.8270714E-002	-4.8480336E-002	-1.280207816838207E-003	2.000000000000000E+000	-4.0421955E-006	6.2064906E-008
2	0	0	0	1	4.194180894046076E+002	-5.1469497E-002	-5.1679056E-002	-1.339271997539982E-003	2.000000000000000E+000	-4.0464379E-006	6.9212312E-008
2	0	0	1	1	4.194214894045217E+002	-5.4868203E-002	-5.5086724E-002	-1.394261085700538E-003	2.000000000000000E+000	-4.0511582E-006	7.6805279E-008
2	0	0	0	1	4.194248894044358E+002	-5.8266904E-002	-5.8477737E-002	-1.446653763287030E-003	2.000000000000000E+000	-4.0560444E-006	8.4597040E-008
2	0	0	0	1	4.194280894043550E+002	-6.1465684E-002	-6.1685611E-002	-1.505045294788940E-003	2.000000000000000E+000	-4.0608193E-006	9.2839635E-008
2	0	0	1	1	4.194314894042691E+002	-6.4864390E-002	-6.5066323E-002	-1.559483807977812E-003	2.000000000000000E+000	-4.0660998E-006	1.0146988E-007
2	0	0	0	1	4.194348894041832E+002	-6.8263091E-002	-6.8470694E-002	-1.623459626898691E-003	2.000000000000000E+000	-4.0715672E-006	1.1115941E-007
2	0	0	0	1	4.194380894041024E+002	-7.1461871E-002	-7.1656816E-002	-1.679167191969099E-003	2.000000000000000E+000	-4.0769023E-006	1.2032378E-007
2	0	0	1	1	4.194414894040165E+002	-7.4860573E-002	-7.5061299E-002	-1.746844457269008E-003	2.000000000000000E+000	-4.0828045E-006	1.3112042E-007
2	0	0	0	1	4.194448894039306E+002	-7.8259282E-002	-7.8471139E-002	-1.812847057468987E-003	2.000000000000000E+000	-4.0889126E-006	1.4225617E-007
2	0	0	0	1	4.194480894038497E+002	-8.1458069E-002	-8.1658788E-002	-1.870896670319179E-003	2.000000000000000E+000	-4.0948589E-006	1.5277516E-007
2	0	0	1	1	4.194514894037638E+002	-8.4856763E-002	-8.5052215E-002	-1.940361497008783E-003	2.000000000000000E+000	-4.1014123E-006	1.6503205E-007
2	0	0	0	1	4.194548894036780E+002	-8.8255458E-002	-8.8444754E-002	-2.020728273434230E-003	2.000000000000000E+000	-4.1082017E-006	1.7872281E-007
2	0	0	0	1	4.194580894035971E+002	-9.1454253E-002	-9.1644742E-002	-2.089971952439859E-003	2.000000000000000E+000	-4.1148296E-006	1.9153494E-007
2	0	0	1	1	4.194614894035112E+002	-9.4852954E-002	-9.5055096E-002	-2.178868951553640E-003	2.000000000000000E+000	-4.1221615E-006	2.0711259E-007
2	0	0	0	1	4.194647894034279E+002	-9.8185025E-002	-9.8370366E-002	-2.271374450190572E-003	2.000000000000000E+000	-4.1295507E-006	2.2343593E-007
2	0	0	0	1	4.194680894033445E+002	-1.0151708E-001	-1.0170840E-001	-2.355866833568141E-003	2.000000000000000E+000	-4.1372668E-006	2.3961147E-007
2	0	0	1	1	4.194714894032586E+002	-1.0491578E-001	-1.0510056E-001	-2.442604903581010E-003	2.000000000000000E+000	-4.1454791E-006	2.5671915E-007
2	0	0	1	1	4.194746894031778E+002	-1.0811457E-001	-1.0829140E-001	-2.525574348267889E-003	2.000000000000000E+000	-4.1534790E-006	2.7349796E-007
2	0	0	0	1	4.194780894030919E+002	-1.1151327E-001	-1.1166614E-001	-2.636565667277567E-003	2.000000000000000E+000	-4.1623366E-006	2.9441509E-007
2	0	0	1	1	4.194814894030060E+002	-1.1491198E-001	-1.1508968E-001	-2.754752559576447E-003	2.000000000000000E+000	-4.1715666E-006	3.1704360E-007
2	0	0	1	1	4.194846894029251E+002	-1.1811075E-001	-1.1829261E-001	-2.864784295616114E-003	2.000000000000000E+000	-4.1806074E-006	3.3888281E-007
2	0	0	0	1	4.194880894028393E+002	-1.2150946E-001	-1.2167344E-001	-2.990803377936863E-003	2.000000000000000E+000	-4.1906424E-006	3.6390134E-007
2	0	0	1	1	4.194914894027534E+002	-1.2490816E-001	-1.2508698E-001	-3.128667757149137E-003	2.000000000000000E+000	-4.2011111E-006	3.9135560E-007
2	0	0	1	1	4.194946894026725E+002	-1.2810695E-001	-1.2830311E-001	-3.273389150399458E-003	2.000000000000000E+000	-4.2114129E-006	4.1998601E-007
2	0	0	0	1	4.194980894025866E+002	-1.3150565E-001	-1.3171411E-001	-3.420489414262800E-003	2.000000000000000E+000	-4.2228703E-006	4.5052670E-007
2	0	0	1	1	4.195014894025007E+002	-1.3490437E-001	-1.3510473E-001	-3.572369118743757E-003	2.000000000000000E+000	-4.2348233E-006	4.8264394E-007
2	0	0	1	1	4.195046894024199E+002	-1.3810314E-001	-1.3829325E-001	-3.736793624890808E-003	2.000000000000000E+000	-4.2465799E-006	5.1677335E-007
2	0	0	0	1	4.195080894023340E+002	-1.4150184E-001	-1.4170182E-001	-3.917175342606544E-003	2.000000000000000E+000	-4.2596785E-006	5.5507087E-007
2	0	0	1	1	4.195114894022481E+002	-1.4490055E-001	-1.4511192E-001	-4.106130518296891E-003	2.000000000000000E+000	-4.2733882E-006	5.9584846E-007
2	0	0	1	1	4.195146894021673E+002	-1.4809932E-001	-1.4829549E-001	-4.288499093793974E-003	2.000000000000000E+000	-4.2868869E-006	6.3596508E-007
2	0	0	0	1	4.195180894020814E+002	-1.5149802E-001	-1.5170202E-001	-4.510637424543044E-003	2.000000000000000E+000	-4.3019322E-006	6.8427278E-007
2	0	0	1	1	4.195214894019955E+002	-1.5489674E-001	-1.5507255E-001	-4.717822588615188E-003	2.000000000000000E+000	-4.3176969E-006	7.3160481E-007
2	0	0	1	1	4.195246894019147E+002	-1.5809551E-001	-1.5829912E-001	-4.940458463352122E-003	2.000000000000000E+000	-4.3332152E-006	7.8207023E-007
2	0	0	0	1	4.195280894018288E+002	-1.6149423E-001	-1.6170667E-001	-5.170434960321768E-003	2.000000000000000E+000	-4.3504897E-006	8.3609382E-007
2	0	0	1	1	4.195314894017429E+002	-1.6489293E-001	-1.6510913E-001	-5.414028143422903E-003	2.000000000000000E+000	-4.3685532E-006	8.9390545E-007
2	0	0	1	1	4.195346894016620E+002	-1.6809173E-001	-1.6831395E-001	-5.647794026238731E-003	2.000000000000000E+000	-4.3863201E-006	9.5060250E-007
2	0	0	0	1	4.195380894015761E+002	-1.7149042E-001	-1.7170380E-001	-5.908284353669526E-003	2.000000000000000E+000	-4.4060612E-006	1.0144748E-006
2	0	0	1	1	4.195414894014903E+002	-1.7488912E-001	-1.7510055E-001	-6.157161500414093E-003	2.000000000000000E+000	-4.4266535E-006	1.0781224E-006
2	0	0	1	1	4.195446894014094E+002	-1.7808791E-001	-1.7828324E-001	-6.430944781641239E-003	2.000000000000000E+000	-4.4468670E-006	1.1465297E-006
2	0	0	0	1	4.195480894013235E+002	-1.8148661E-001	-1.8170020E-001	-6.715156360284413E-003	2.000000000000000E+000	-4.4693161E-006	1.2201452E-006
2	0	0	1	1	4.195514894012376E+002	-1.8488529E-001	-1.8511118E-001	-6.995059811864240E-003	2.000000000000000E+000	-4.4926965E-006	1.2948638E-006
2	0	0	1	1	4.195546894011568E+002	-1.8808410E-001	-1.8830201E-001	-7.242860069345630E-003	2.000000000000000E+000	-4.5155489E-006	1.3638451E-006
2	0	0	0	1	4.195580894010709E+002	-1.9148281E-001	-1.9169940E-001	-7.524940057858948E-003	2.000000000000000E+000	-4.5407546E-006	1.4425265E-006
2	0	0	1	1	4.195614894009850E+002	-1.9488150E-001	-1.9507448E-001	-7.803807673735702E-003	2.000000000000000E+000	-4.5668835E-006	1.5223237E-006
2	0	0	1	1	4.195646894009042E+002	-1.9808026E-001	-1.9827119E-001	-8.074987566457477E-003	2.000000000000000E+000	-4.5923621E-006	1.6010374E-006
2	0	0	0	1	4.195680894008183E+002	-2.0147896E-001	-2.0168824E-001	-8.383670152519090E-003	2.000000000000000E+000	-4.6204423E-006	1.6908878E-006
2	0	0	1	1	4.195714894007324E+002	-2.0487769E-001	-2.0509517E-001	-8.675448700099272E-003	2.000000000000000E+000	-4.6495243E-006	1.7792927E-006
2	0	0	1	1	4.195746894006516E+002	-2.0807648E-001	-2.0827799E-001	-8.933271271356102E-003	2.000000000000000E+000	-4.6777750E-006	1.8606038E-006
2	0	0	0	1	4.195780894005657E+002	-2.1147516E-001	-2.1168770E-001	-9.208983455876785E-003	2.000000000000000E+000	-4.7087187E-006	1.9494285E-006
2	0	0	1	1	4.195814894004798E+002	-2.1487387E-001	-2.1509193E-001	-9.472345823269258E-003	2.000000000000000E+000	-4.7405533E-006	2.0374252E-006
2	0	0	1	1	4.195846894003989E+002	-2.1807265E-001	-2.1830414E-001	-9.723015061050923E-003	2.000000000000000E+000	-4.7713420E-006	2.1225744E-006
2	0	0	0	1	4.195880894003130E+002	-2.2147137E-001	-2.2169870E-001	-9.987264751058933E-003	2.000000000000000E+000	-4.8049405E-006	2.2141637E-006
2	0	0	1	1	4.196064893998482E+002	-2.3989458E-001	-2.4007823E-001	-1.095543408618226E-002	2.000000000000000E+000	-4.9938444E-006	2.6301611E-006
2	0	0	1	1	4.196246893993884E+002	-2.5805742E-001	-2.5821376E-001	-1.181962857857188E-002	2.000000000000000E+000	-5.1838288E-006	3.0519907E-006
2	0	0	0	1	4.196280893993026E+002	-2.6145610E-001	-2.6160920E-001	-1.188631010809327E-002	2.000000000000000E+000	-5.2242854E-006	3.1095681E-006
2	0	0	1	1	4.196314893992167E+002	-2.6485485E-001	-2.6500505E-001	-1.193454404286359E-002	2.000000000000000E+000	-5.2649207E-006	3.1627144E-006
2	0	0	1	1	4.196346893991358E+002	-2.6805362E-001	-2.6821232E-001	-1.195934760544332E-002	2.000000000000000E+000	-5.3032913E-006	3.2076443E-006
2	0	0	0	1	4.196380893990499E+002	-2.7145231E-001	-2.7160993E-001	-1.196595885994609E-002	2.000000000000000E+000	-5.3441208E-006	3.2500732E-006
2	0	0	0	1	4.196412893989691E+002	-2.7471775E-001	-2.7489305E-001	-1.198272754469751E-002	2.000000000000000E+000	-5.3825802E-006	3.2939686E-006
2	0	0	1	1	4.196446893988832E+002	-2.7811643E-001	-2.7827162E-001	-1.196233596116747E-002	2.000000000000000E+000	-5.4234370E-006	3.3287786E-006
2	0	0	0	1	4.196480893987973E+002	-2.8151512E-001	-2.8166938E-001	-1.193334960710979E-002	2.000000000000000E+000	-5.4641996E-006	3.3612591E-006
2	0	0	0	1	4.196512893987165E+002	-2.8471389E-001	-2.8486747E-001	-1.189098820347378E-002	2.000000000000000E+000	-5.5024425E-006	3.3873557E-006
2	0	0	1	1	4.196546893986306E+002	-2.8811261E-001	-2.8826061E-001	-1.180540224280170E-002	2.000000000000000E+000	-5.5428732E-006	3.4030325E-006
2	0	0	0	1	4.196580893985447E+002	-2.9151133E-001	-2.9166931E-001	-1.172199084091213E-002	2.000000000000000E+000	-5.5829769E-006	3.4189450E-006
2	0	0	0	1	4.196612893984639E+002	-2.9471010E-001	-2.9486063E-001	-1.165187683533681E-002	2.000000000000000E+000	-5.6204908E-006	3.4356797E-006
2	0	0	1	1	4.196646893983780E+002	-2.9810882E-001	-2.9828945E-001	-1.157915578769460E-002	2.000000000000000E+000	-5.6601266E-006	3.4539401E-006
2	0	0	0	1	4.196680893982921E+002	-3.0150750E-001	-3.0168858E-001	-1.145612881421887E-002	2.000000000000000E+000	-5.6994008E-006	3.4561833E-006
2	0	0	0	1	4.196712893982112E+002	-3.0470631E-001	-3.0488655E-001	-1.136061427835855E-002	2.000000000000000E+000	-5.7360216E-006	3.4636985E-006
2	0	0	1	1	4.196746893981253E+002	-3.0810499E-001	-3.0829552E-001	-1.124273554560201E-002	2.000000000000000E+000	-5.7745860E-006	3.4660850E-006
2	0	0	0	1	4.196780893980394E+002	-3.1150371E-001	-3.1170860E-001	-1.112788438282827E-002	2.000000000000000E+000	-5.8127443E-006	3.4686573E-006
2	0	0	0	1	4.196812893979586E+002	-3.1470248E-001	-3.1488800E-001	-1.102369777193718E-002	2.000000000000000E+000	-5.8483170E-006	3.4712302E-006
2	0	0	1	1	4.196846893978727E+002	-3.1810120E-001	-3.1830764E-001	-1.091747839624684E-002	2.000000000000000E+000	-5.8857477E-006	3.4751167E-006
2	0	0	0	1	4.196880893977868E+002	-3.2149988E-001	-3.2168946E-001	-1.079916821193672E-002	2.000000000000000E+000	-5.9227764E-006	3.4739785E-006
2	0	0	0	1	4.196912893977060E+002	-3.2469869E-001	-3.2488248E-001	-1.067892596959913E-002	2.000000000000000E+000	-5.9572617E-006	3.4693960E-006
2	0	0	1	1	4.196946893976201E+002	-3.2809740E-001	-3.2826841E-001	-1.056731590615526E-002	2.000000000000000E+000	-5.9935242E-006	3.4689160E-006
2	0	0	0	1	4.196980893975342E+002	-3.3149612E-001	-3.3168256E-001	-1.046024350556158E-002	2.000000000000000E+000	-6.0293896E-006	3.4694804E-006
2	0	0	0	1	4.197012893974534E+002	-3.3469489E-001	-3.3486488E-001	-1.034108203396805E-002	2.000000000000000E+000	-6.0628008E-006	3.4628652E-006
2	0	0	1	1	4.197046893973675E+002	-3.3809355E-001	-3.3828440E-001	-1.027174317459870E-002	2.000000000000000E+000	-6.0979974E-006	3.4747704E-006
2	0	0	0	1	4.197080893972816E+002	-3.4149227E-001	-3.4170187E-001	-1.018652595193996E-002	2.000000000000000E+000	-6.1328988E-006	3.4807549E-006
2	0	0	0	1	4.197112893972007E+002	-3.4469104E-001	-3.4490806E-001	-1.008961232485792E-002	2.000000000000000E+000	-6.1654582E-006	3.4799887E-006
2	0	0	1	1	4.197146893971149E+002	-3.4808975E-001	-3.4828928E-001	-9.982998565950141E-003	2.000000000000000E+000	-6.1997216E-006	3.4769714E-006
2	0	0	0	1	4.197180893970290E+002	-3.5148841E-001	-3.5169870E-001	-9.885220685221921E-003	2.000000000000000E+000	-6.2336176E-006	3.4766192E-006
2	0	0	0	1	4.197212893969481E+002	-3.5468724E-001	-3.5491604E-001	-9.840049874037464E-003	2.000000000000000E+000	-6.2652980E-006	3.4923914E-006
2	0	0	1	1	4.197246893968622E+002	-3.5808596E-001	-3.5830128E-001	-9.750688273197736E-003	2.000000000000000E+000	-6.2987338E-006	3.4936841E-006
2	0	0	0	1	4.197280893967763E+002	-3.6148465E-001	-3.6168343E-001	-9.671751172330295E-003	2.000000000000000E+000	-6.3318780E-006	3.4981122E-006
2	0	0	0	1	4.197312893966955E+002	-3.6468348E-001	-3.6488262E-001	-9.616219290667971E-003	2.000000000000000E+000	-6.3628695E-006	3.5087912E-006
2	0	0	1	1	4.197346893966096E+002	-3.6808214E-001	-3.6826399E-001	-9.522928656770083E-003	2.000000000000000E+000	-6.3955335E-006	3.5069518E-006
2	0	0	0	1	4.197380893965237E+002	-3.7148085E-001	-3.7168384E-001	-9.493433145871671E-003	2.000000000000000E+000	-6.4279834E-006	3.5285557E-006
2	0	0	0	1	4.197412893964429E+002	-3.7467963E-001	-3.7488985E-001	-9.420395063170883E-003	2.000000000000000E+000	-6.4583833E-006	3.5316104E-006
2	0	0	1	1	4.197446893963570E+002	-3.7807834E-001	-3.7828466E-001	-9.363681813374547E-003	2.000000000000000E+000	-6.4904743E-006	3.5421372E-006
2	0	0	0	1	4.197480893962711E+002	-3.8147706E-001	-3.8168469E-001	-9.334897870818759E-003	2.000000000000000E+000	-6.5223908E-006	3.5629876E-006
2	0	0	0	1	4.197512893961903E+002	-3.8467583E-001	-3.8489160E-001	-9.299275717300270E-003	2.000000000000000E+000	-6.5523445E-006	3.5792132E-006
2	0	0	1	1	4.197546893961044E+002	-3.8807455E-001	-3.8830024E-001	-9.260360317239230E-003	2.000000000000000E+000	-6.5840409E-006	3.5958001E-006
2	0	0	0	1	4.197580893960185E+002	-3.9147320E-001	-3.9169124E-001	-9.200556427883061E-003	2.000000000000000E+000	-6.6155512E-006	3.6037773E-006
2	0	0	0	1	4.197612893959376E+002	-3.9467198E-001	-3.9490676E-001	-9.168010491278744E-003	2.000000000000000E+000	-6.6450671E-006	3.6205092E-006
2	0	0	1	1	4.197646893958517E+002	-3.9807069E-001	-3.9829561E-001	-9.144579836902242E-003	2.000000000000000E+000	-6.6763409E-006	3.6422459E-006
2	0	0	0	1	4.197680893957659E+002	-4.0146941E-001	-4.0169260E-001	-9.097871077938163E-003	2.000000000000000E+000	-6.7074920E-006	3.6545475E-006
2	0	0	0	1	4.197712893956850E+002	-4.0466818E-001	-4.0485981E-001	-9.079233588454388E-003	2.000000000000000E+000	-6.7367100E-006	3.6758167E-006
2	0	0	1	1	4.197746893955991E+002	-4.0806690E-001	-4.0827262E-001	-9.059680398847039E-003	2.000000000000000E+000	-6.7676879E-006	3.6988195E-006
2	0	0	0	1	4.197780893955132E+002	-4.1146564E-001	-4.1165939E-001	-9.021463745496776E-003	2.000000000000000E+000	-6.7985407E-006	3.7137702E-006
2	0	0	0	1	4.197812893954324E+002	-4.1466442E-001	-4.1487268E-001	-9.020598898374949E-003	2.000000000000000E+000	-6.8275399E-006	3.7423999E-006
2	0	0	1	1	4.197846893953465E+002	-4.1806307E-001	-4.1829473E-001	-8.999088710576544E-003	2.000000000000000E+000	-6.8583122E-006	3.7642715E-006
2	0	0	0	1	4.197880893952606E+002	-4.2146176E-001	-4.2168418E-001	-8.971742344268318E-003	2.000000000000000E+000	-6.8889922E-006	3.7832417E-006
2	0	0	0	1	4.197912893951798E+002	-4.2466056E-001	-4.2487761E-001	-8.954884446939086E-003	2.000000000000000E+000	-6.9178018E-006	3.8047299E-006
2	0	0	1	1	4.197946893950939E+002	-4.2805928E-001	-4.2824364E-001	-8.941993000432052E-003	2.000000000000000E+000	-6.9483749E-006	3.8293515E-006
2	0	0	0	1	4.197980893950080E+002	-4.3145794E-001	-4.3166518E-001	-8.940136929777458E-003	2.000000000000000E+000	-6.9789053E-006	3.8591456E-006
2	0	0	0	1	4.198012893949272E+002	-4.3465677E-001	-4.3486688E-001	-8.927029616400718E-003	2.000000000000000E+000	-7.0076212E-006	3.8820694E-006
2	0	0	1	1	4.198046893948413E+002	-4.3805549E-001	-4.3824121E-001	-8.917685550174300E-003	2.000000000000000E+000	-7.0380997E-006	3.9080974E-006
2	0	0	0	1	4.198080893947554E+002	-4.4145417E-001	-4.4165066E-001	-8.894648379161173E-003	2.000000000000000E+000	-7.0685223E-006	3.9283273E-006
2	0	0	0	1	4.198112893946745E+002	-4.4465292E-001	-4.4485143E-001	-8.896962584731244E-003	2.000000000000000E+000	-7.0971191E-006	3.9578267E-006
2	0	0	1	1	4.198146893945886E+002	-4.4807383E-001	-4.4825429E-001	-8.909485203306144E-003	2.000000000000000E+000	-7.1275372E-006	3.9937149E-006
2	0	0	1	1	4.198178893945078E+002	-4.5131704E-001	-4.5150483E-001	-8.905391353982856E-003	2.000000000000000E+000	-7.1561658E-006	4.0208270E-006
2	0	0	0	1	4.198212893944219E+002	-4.5471576E-001	-4.5489627E-001	-8.887402747980847E-003	2.000000000000000E+000	-7.1865502E-006	4.0428463E-006
2	0	0	1	1	4.198246893943360E+002	-4.5811448E-001	-4.5832443E-001	-8.900484211699228E-003	2.000000000000000E+000	-7.2169200E-006	4.0793093E-006
2	0	0	1	1	4.198278893942552E+002	-4.6131328E-001	-4.6151015E-001	-8.907845068461012E-003	2.000000000000000E+000	-7.2455427E-006	4.1110611E-006
2	0	0	0	1	4.198312893941693E+002	-4.6471199E-001	-4.6490520E-001	-8.899276780236193E-003	2.000000000000000E+000	-7.2759599E-006	4.1373200E-006
2	0	0	1	1	4.198346893940834E+002	-4.6811068E-001	-4.6832892E-001	-8.919808710864646E-003	2.000000000000000E+000	-7.3063807E-006	4.1774042E-006
2	0	0	1	1	4.198378893940026E+002	-4.7130948E-001	-4.7153208E-001	-8.932750834173914E-003	2.000000000000000E+000	-7.3350752E-006	4.2120787E-006
2	0	0	0	1	4.198412893939167E+002	-4.7470814E-001	-4.7490683E-001	-8.921282614270831E-003	2.000000000000000E+000	-7.3655824E-006	4.2367778E-006
2	0	0	1	1	4.198446893938308E+002	-4.7810683E-001	-4.7832572E-001	-8.940849446783717E-003	2.000000000000000E+000	-7.3960882E-006	4.2766383E-006
2	0	0	1	1	4.198478893937499E+002	-4.8130560E-001	-4.8151016E-001	-8.932190802928119E-003	2.000000000000000E+000	-7.4248233E-006	4.3009404E-006
2	0	0	0	1	4.198512893936640E+002	-4.8470432E-001	-4.8491913E-001	-8.943175828486916E-003	2.000000000000000E+000	-7.4553668E-006	4.3367172E-006
2	0	0	1	1	4.198546893935782E+002	-4.8810306E-001	-4.8831862E-001	-8.968589133958954E-003	2.000000000000000E+000	-7.4859508E-006	4.3795289E-006
2	0	0	1	1	4.198578893934973E+002	-4.9130183E-001	-4.9149168E-001	-8.973699846440766E-003	2.000000000000000E+000	-7.5147946E-006	4.4104986E-006
2	0	0	0	1	4.198612893934114E+002	-4.9470058E-001	-4.9489492E-001	-8.989350574362703E-003	2.000000000000000E+000	-7.5454709E-006	4.4487838E-006
2	0	0	1	1	4.198646893933255E+002	-4.9809930E-001	-4.9830928E-001	-9.010047552267975E-003	2.000000000000000E+000	-7.5761941E-006	4.4897902E-006
2	0	0	1	1	4.198678893932447E+002	-5.0129807E-001	-5.0152010E-001	-9.039186786685582E-003	2.000000000000000E+000	-7.6052038E-006	4.5333340E-006
2	0	0	0	1	4.198712893931588E+002	-5.0469673E-001	-5.0488788E-001	-9.060163154511733E-003	2.000000000000000E+000	-7.6361248E-006	4.5743664E-006
2	0	0	1	1	4.198746893930729E+002	-5.0809544E-001	-5.0832069E-001	-9.072952948978735E-003	2.000000000000000E+000	-7.6670767E-006	4.6119699E-006
2	0	0	1	1	4.198778893929921E+002	-5.1129419E-001	-5.1152045E-001	-9.082119698662905E-003	2.000000000000000E+000	-7.6962551E-006	4.6456898E-006
2	0	0	0	1	4.198812893929062E+002	-5.1469290E-001	-5.1490301E-001	-9.106427383145873E-003	2.000000000000000E+000	-7.7273216E-006	4.6889268E-006
2	0	0	1	1	4.198846893928203E+002	-5.1809162E-001	-5.1830477E-001	-9.136685046481324E-003	2.000000000000000E+000	-7.7584727E-006	4.7355875E-006
2	0	0	1	1	4.198878893927395E+002	-5.2129042E-001	-5.2149004E-001	-9.165696820734103E-003	2.000000000000000E+000	-7.7878876E-006	4.7798194E-006
2	0	0	0	1	4.198912893926536E+002	-5.2468914E-001	-5.2490443E-001	-9.209532439066026E-003	2.000000000000000E+000	-7.8192807E-006	4.8341244E-006
2	0	0	1	1	4.198946893925677E+002	-5.2808779E-001	-5.2829617E-001	-9.225208278015380E-003	2.000000000000000E+000	-7.8507583E-006	4.8736424E-006
2	0	0	1	1	4.198978893924868E+002	-5.3128660E-001	-5.3148597E-001	-9.268662116179827E-003	2.000000000000000E+000	-7.8804806E-006	4.9261639E-006
2	0	0	0	1	4.199012893924009E+002	-5.3468525E-001	-5.3486508E-001	-9.286943806182510E-003	2.000000000000000E+000	-7.9121746E-006	4.9672622E-006
2	0	0	1	1	4.199046893923150E+002	-5.3808403E-001	-5.3826582E-001	-9.326927467494278E-003	2.000000000000000E+000	-7.9439596E-006	5.0203662E-006
2	0	0	1	1	4.199078893922342E+002	-5.4128277E-001	-5.4147136E-001	-9.353358230024825E-003	2.000000000000000E+000	-7.9739839E-006	5.0645758E-006
2	0	0	0	1	4.199112893921483E+002	-5.4468143E-001	-5.4487991E-001	-9.401376076978801E-003	2.000000000000000E+000	-8.0060136E-006	5.1226211E-006
2	0	0	1	1	4.199146893920624E+002	-5.4808015E-001	-5.4828513E-001	-9.452560617016076E-003	2.000000000000000E+000	-8.0381951E-006	5.1826983E-006
2	0	0	1	1	4.199178893919816E+002	-5.5127901E-001	-5.5147237E-001	-9.501862412253100E-003	2.000000000000000E+000	-8.0686641E-006	5.2400146E-006
2	0	0	0	1	4.199212893918957E+002	-5.5467767E-001	-5.5490893E-001	-9.552181960437667E-003	2.000000000000000E+000	-8.1012322E-006	5.3005911E-006
2	0	0	1	1	4.199246893918098E+002	-5.5807638E-001	-5.5830508E-001	-9.596716712985641E-003	2.000000000000000E+000	-8.1339231E-006	5.3578956E-006
2	0	0	1	1	4.199278893917290E+002	-5.6127512E-001	-5.6148201E-001	-9.648968624484638E-003	2.000000000000000E+000	-8.1648413E-006	5.4177222E-006
2	0	0	0	1	4.199312893916431E+002	-5.6467384E-001	-5.6489336E-001	-9.702199039141601E-003	2.000000000000000E+000	-8.1978924E-006	5.4807078E-006
2	0	0	1	1	4.199346893915572E+002	-5.6807256E-001	-5.6830728E-001	-9.770876904197673E-003	2.000000000000000E+000	-8.2311426E-006	5.5528603E-006
2	0	0	1	1	4.199378893914763E+002	-5.7127136E-001	-5.7148564E-001	-9.823026829447662E-003	2.000000000000000E+000	-8.2626311E-006	5.6137187E-006
2	0	0	0	1	4.199412893913905E+002	-5.7467002E-001	-5.7488787E-001	-9.881024541997879E-003	2.000000000000000E+000	-8.2962852E-006	5.6804811E-006
2	0	0	1	1	4.199446893913046E+002	-5.7806873E-001	-5.7828057E-001	-9.958512125983044E-003	2.000000000000000E+000	-8.3301438E-006	5.7588140E-006
2	0	0	1	1	4.199478893912237E+002	-5.8126754E-001	-5.8145791E-001	-1.002312142251563E-002	2.000000000000000E+000	-8.3622526E-006	5.8280234E-006
2	0	0	0	1	4.199512893911378E+002	-5.8466619E-001	-5.8487076E-001	-1.011182295029962E-002	2.000000000000000E+000	-8.3966397E-006	5.9141094E-006
2	0	0	1	1	4.199546893910519E+002	-5.8806491E-001	-5.8829331E-001	-1.017252872516111E-002	2.000000000000000E+000	-8.4312551E-006	5.9844306E-006
2	0	0	1	1	4.199578893909711E+002	-5.9126371E-001	-5.9145933E-001	-1.026064411768557E-002	2.000000000000000E+000	-8.4640924E-006	6.0687539E-006
2	0	0	0	1	4.199612893908852E+002	-5.9466237E-001	-5.9486622E-001	-1.032274911437217E-002	2.000000000000000E+000	-8.4992425E-006	6.1406549E-006
2	0	0	1	1	4.199646893907993E+002	-5.9806108E-001	-5.9825307E-001	-1.041431060039029E-002	2.000000000000000E+000	-8.5346137E-006	6.2303934E-006
2	0	0	1	1	4.199663893907564E+002	-5.9982693E-001	-6.0000455E-001	-1.048986520618200E-002	2.000000000000000E+000	-8.5523961E-006	6.2939671E-006