EC-Lab ASCII FILE
Nb header lines : 53                          

Cyclic Voltammetry

Run on channel : 1 (SN 0696)
User : 
Electrode connection : standard
Ewe ctrl range : min = -10.00 V, max = 10.00 V
Ewe,I filtering : 50 kHz
Channel : Grounded
Acquisition started on : 05/17/2017 12:14:48
Saved on :
	File : 100 uM MB 10mM PB Second ITO_05_CV_C01.mpr
	Directory : \\userfs\st659\w2k\EC-Lab\Data\ITO Characterisation 17-5-17\
	Host : 144.32.136.43
Device : SP-300 (SN 0182)
Address : USB
EC-Lab for windows v10.44 (software)
Internet server v10.44 (firmware)
Command interpretor v10.44 (firmware)
Electrode material : 
Initial state : 
Electrolyte : 
Comments : 
Cable : standard
Electrode surface area : 0.001 cm²
Characteristic mass : 0.001 g
Equivalent Weight : 0.000 g/eq.
Density : 0.000 g/cm3
Ei (V)              0.000               
vs.                 Eoc                 
dE/dt               500.000             
dE/dt unit          mV/s                
E1 (V)              0.100               
vs.                 Ref                 
Step percent        50                  
N                   10                  
E range min (V)     -10.000             
E range max (V)     10.000              
I Range             Auto                
I Range min         Unset               
I Range max         Unset               
I Range init        Unset               
Bandwidth           8                   
E2 (V)              -0.600              
vs.                 Ref                 
nc cycles           2                   
Reverse Scan        1                   
Ef (V)              0.000               
vs.                 Eoc                 

mode	ox/red	error	control changes	counter inc.	time/s	control/V	Ewe/V	<I>/mA	cycle number	(Q-Qo)/C	P/W
2	1	0	0	1	4.097889896478591E+002	-6.0016018E-001	-6.0048145E-001	-8.714510127902031E-003	2.000000000000000E+000	-8.1147437E-006	5.2329015E-006
2	1	0	1	1	4.097925896477682E+002	-5.9836102E-001	-5.9857047E-001	-7.440391458173190E-003	2.000000000000000E+000	-8.1419012E-006	4.4535986E-006
2	1	0	1	1	4.097993896475964E+002	-5.9496230E-001	-5.9517598E-001	-6.580398024258721E-003	2.000000000000000E+000	-8.1890594E-006	3.9164947E-006
2	1	0	0	1	4.098059896474297E+002	-5.9166360E-001	-5.9187537E-001	-6.185485414607672E-003	2.000000000000000E+000	-8.2308907E-006	3.6610365E-006
2	1	0	1	1	4.098125896472629E+002	-5.8836484E-001	-5.8856612E-001	-5.900261834176475E-003	2.000000000000000E+000	-8.2705010E-006	3.4726943E-006
2	1	0	1	1	4.098193896470912E+002	-5.8496606E-001	-5.8516872E-001	-5.653779121469915E-003	2.000000000000000E+000	-8.3095119E-006	3.3084148E-006
2	1	0	0	1	4.098259896469244E+002	-5.8166736E-001	-5.8184361E-001	-5.445831439525730E-003	2.000000000000000E+000	-8.3458826E-006	3.1686222E-006
2	1	0	1	1	4.098325896467577E+002	-5.7836866E-001	-5.7856607E-001	-5.265186466810214E-003	2.000000000000000E+000	-8.3809782E-006	3.0462584E-006
2	1	0	1	1	4.098393896465859E+002	-5.7496989E-001	-5.7515389E-001	-5.093293031192547E-003	2.000000000000000E+000	-8.4159365E-006	2.9294272E-006
2	1	0	0	1	4.098459896464192E+002	-5.7167119E-001	-5.7185572E-001	-4.935541168742910E-003	2.000000000000000E+000	-8.4488011E-006	2.8224174E-006
2	1	0	1	1	4.098525896462525E+002	-5.6837243E-001	-5.6857246E-001	-4.803981623081186E-003	2.000000000000000E+000	-8.4806979E-006	2.7314118E-006
2	1	0	1	1	4.098593896460807E+002	-5.6497371E-001	-5.6515974E-001	-4.666969987920308E-003	2.000000000000000E+000	-8.5126403E-006	2.6375835E-006
2	1	0	0	1	4.098659896459139E+002	-5.6167501E-001	-5.6184715E-001	-4.541116432907680E-003	2.000000000000000E+000	-8.5427801E-006	2.5514132E-006
2	1	0	1	1	4.098725896457472E+002	-5.5837625E-001	-5.5856854E-001	-4.429767332173155E-003	2.000000000000000E+000	-8.5721313E-006	2.4743288E-006
2	1	0	1	1	4.098793896455754E+002	-5.5497754E-001	-5.5518860E-001	-4.312254623376546E-003	2.000000000000000E+000	-8.6015962E-006	2.3941145E-006
2	1	0	0	1	4.098859896454087E+002	-5.5167878E-001	-5.5184400E-001	-4.205458723542201E-003	2.000000000000000E+000	-8.6294758E-006	2.3207572E-006
2	1	0	1	1	4.098925896452420E+002	-5.4838002E-001	-5.4853183E-001	-4.110751649144118E-003	2.000000000000000E+000	-8.6566724E-006	2.2548782E-006
2	1	0	1	1	4.098993896450702E+002	-5.4498136E-001	-5.4514903E-001	-4.014292838716453E-003	2.000000000000000E+000	-8.6840382E-006	2.1883880E-006
2	1	0	0	1	4.099059896449035E+002	-5.4168266E-001	-5.4184467E-001	-3.924028956619929E-003	2.000000000000000E+000	-8.7099988E-006	2.1262142E-006
2	1	0	1	1	4.099125896447367E+002	-5.3838390E-001	-5.3853041E-001	-3.834786923956307E-003	2.000000000000000E+000	-8.7353565E-006	2.0651494E-006
2	1	0	1	1	4.099192896445675E+002	-5.3500700E-001	-5.3515512E-001	-3.748324399566627E-003	2.000000000000000E+000	-8.7605222E-006	2.0059349E-006
2	1	0	0	1	4.099259896443982E+002	-5.3165311E-001	-5.3182328E-001	-3.675995765297563E-003	2.000000000000000E+000	-8.7851431E-006	1.9549800E-006
2	1	0	1	1	4.099325896442315E+002	-5.2835435E-001	-5.2853519E-001	-3.600451229916257E-003	2.000000000000000E+000	-8.8089319E-006	1.9029652E-006
2	1	0	0	1	4.099391896440648E+002	-5.2505559E-001	-5.2523023E-001	-3.529369390647233E-003	2.000000000000000E+000	-8.8322176E-006	1.8537315E-006
2	1	0	0	1	4.099459896438930E+002	-5.2165693E-001	-5.2182853E-001	-3.452971955751602E-003	2.000000000000000E+000	-8.8557090E-006	1.8018593E-006
2	1	0	1	1	4.099525896437262E+002	-5.1835817E-001	-5.1852709E-001	-3.384037231383738E-003	2.000000000000000E+000	-8.8780462E-006	1.7547150E-006
2	1	0	0	1	4.099591896435595E+002	-5.1505941E-001	-5.1523221E-001	-3.325462743729662E-003	2.000000000000000E+000	-8.8999441E-006	1.7133855E-006
2	1	0	0	1	4.099659896433877E+002	-5.1166075E-001	-5.1183945E-001	-3.257457628569676E-003	2.000000000000000E+000	-8.9220794E-006	1.6672954E-006
2	1	0	1	1	4.099725896432210E+002	-5.0836200E-001	-5.0855803E-001	-3.196489094534625E-003	2.000000000000000E+000	-8.9431460E-006	1.6256002E-006
2	1	0	0	1	4.099791896430543E+002	-5.0506324E-001	-5.0525153E-001	-3.139444088841016E-003	2.000000000000000E+000	-8.9637988E-006	1.5862089E-006
2	1	0	0	1	4.099859896428825E+002	-5.0166458E-001	-5.0186288E-001	-3.073804223367914E-003	2.000000000000000E+000	-8.9846681E-006	1.5426283E-006
2	1	0	1	1	4.099925896427158E+002	-4.9836579E-001	-4.9852440E-001	-3.016176030693409E-003	2.000000000000000E+000	-9.0045332E-006	1.5036373E-006
2	1	0	0	1	4.099991896425490E+002	-4.9506706E-001	-4.9523216E-001	-2.964936011449020E-003	2.000000000000000E+000	-9.0240237E-006	1.4683317E-006
2	1	0	0	1	4.100059896423772E+002	-4.9166837E-001	-4.9183649E-001	-2.909480981452363E-003	2.000000000000000E+000	-9.0437406E-006	1.4309890E-006
2	1	0	1	1	4.100125896422105E+002	-4.8836964E-001	-4.8854899E-001	-2.861224033616348E-003	2.000000000000000E+000	-9.0625481E-006	1.3978481E-006
2	1	0	0	1	4.100191896420438E+002	-4.8507085E-001	-4.8524773E-001	-2.805526088347197E-003	2.000000000000000E+000	-9.0810063E-006	1.3613752E-006
2	1	0	0	1	4.100259896418720E+002	-4.8167220E-001	-4.8184672E-001	-2.755598413902282E-003	2.000000000000000E+000	-9.0996700E-006	1.3277761E-006
2	1	0	1	1	4.100325896417053E+002	-4.7837341E-001	-4.7854200E-001	-2.701710780729616E-003	2.000000000000000E+000	-9.1174525E-006	1.2928821E-006
2	1	0	0	1	4.100391896415385E+002	-4.7507465E-001	-4.7524896E-001	-2.656033989175435E-003	2.000000000000000E+000	-9.1348902E-006	1.2622774E-006
2	1	0	0	1	4.100459896413668E+002	-4.7167596E-001	-4.7186080E-001	-2.611347804122498E-003	2.000000000000000E+000	-9.1525553E-006	1.2321926E-006
2	1	0	1	1	4.100525896412000E+002	-4.6837717E-001	-4.6855778E-001	-2.562867671440466E-003	2.000000000000000E+000	-9.1693992E-006	1.2008516E-006
2	1	0	0	1	4.100591896410333E+002	-4.6507847E-001	-4.6524066E-001	-2.511343881754620E-003	2.000000000000000E+000	-9.1858965E-006	1.1683793E-006
2	1	0	0	1	4.100659896408615E+002	-4.6167979E-001	-4.6185640E-001	-2.474179680969718E-003	2.000000000000000E+000	-9.2025984E-006	1.1427157E-006
2	1	0	1	1	4.100725896406948E+002	-4.5838103E-001	-4.5854047E-001	-2.430395511843618E-003	2.000000000000000E+000	-9.2185537E-006	1.1144347E-006
2	1	0	0	1	4.100791896405281E+002	-4.5508227E-001	-4.5523775E-001	-2.383339885667125E-003	2.000000000000000E+000	-9.2341916E-006	1.0849863E-006
2	1	0	0	1	4.100859896403563E+002	-4.5168361E-001	-4.5184073E-001	-2.341888087115260E-003	2.000000000000000E+000	-9.2500131E-006	1.0581604E-006
2	1	0	1	1	4.100925896401895E+002	-4.4836262E-001	-4.4852078E-001	-2.295515078518894E-003	2.000000000000000E+000	-9.2650916E-006	1.0295862E-006
2	1	0	0	1	4.100991896400228E+002	-4.4505277E-001	-4.4521022E-001	-2.258634705473613E-003	2.000000000000000E+000	-9.2798900E-006	1.0055672E-006
2	1	0	1	1	4.101057896398561E+002	-4.4175407E-001	-4.4192749E-001	-2.219195480968958E-003	2.000000000000000E+000	-9.2944338E-006	9.8072348E-007
2	1	0	1	1	4.101125896396843E+002	-4.3835536E-001	-4.3852797E-001	-2.177981848763000E-003	2.000000000000000E+000	-9.3091439E-006	9.5510597E-007
2	1	0	0	1	4.101191896395176E+002	-4.3505663E-001	-4.3521881E-001	-2.136094666730058E-003	2.000000000000000E+000	-9.3231529E-006	9.2966860E-007
2	1	0	1	1	4.101257896393508E+002	-4.3175787E-001	-4.3192840E-001	-2.100113150784934E-003	2.000000000000000E+000	-9.3368899E-006	9.0709852E-007
2	1	0	1	1	4.101325896391791E+002	-4.2835918E-001	-4.2852622E-001	-2.059155341127428E-003	2.000000000000000E+000	-9.3507952E-006	8.8240205E-007
2	1	0	0	1	4.101391896390123E+002	-4.2506042E-001	-4.2522976E-001	-2.023737655842216E-003	2.000000000000000E+000	-9.3640510E-006	8.6055348E-007
2	1	0	1	1	4.101457896388456E+002	-4.2176169E-001	-4.2194927E-001	-1.984429717291882E-003	2.000000000000000E+000	-9.3770313E-006	8.3732868E-007
2	1	0	1	1	4.101525896386738E+002	-4.1836295E-001	-4.1854882E-001	-1.948141739315664E-003	2.000000000000000E+000	-9.3901517E-006	8.1539241E-007
2	1	0	0	1	4.101591896385071E+002	-4.1506422E-001	-4.1525209E-001	-1.910396172509831E-003	2.000000000000000E+000	-9.4026509E-006	7.9329601E-007
2	1	0	1	1	4.101657896383404E+002	-4.1176549E-001	-4.1193825E-001	-1.871408434302183E-003	2.000000000000000E+000	-9.4148800E-006	7.7090471E-007
2	1	0	1	1	4.101725896381686E+002	-4.0836677E-001	-4.0853390E-001	-1.837053859950769E-003	2.000000000000000E+000	-9.4272382E-006	7.5049877E-007
2	1	0	0	1	4.101791896380018E+002	-4.0506804E-001	-4.0524125E-001	-1.799042865241060E-003	2.000000000000000E+000	-9.4390125E-006	7.2904641E-007
2	1	0	1	1	4.101857896378351E+002	-4.0176925E-001	-4.0196148E-001	-1.764930598953166E-003	2.000000000000000E+000	-9.4505413E-006	7.0943412E-007
2	1	0	1	1	4.101925896376633E+002	-3.9837059E-001	-3.9855355E-001	-1.726781639990804E-003	2.000000000000000E+000	-9.4621655E-006	6.8821493E-007
2	1	0	0	1	4.101991896374966E+002	-3.9507183E-001	-3.9525864E-001	-1.694032102113849E-003	2.000000000000000E+000	-9.4732250E-006	6.6958080E-007
2	1	0	1	1	4.102057896373299E+002	-3.9177310E-001	-3.9195633E-001	-1.654209530170186E-003	2.000000000000000E+000	-9.4840316E-006	6.4837792E-007
2	1	0	1	1	4.102125896371581E+002	-3.8837436E-001	-3.8854745E-001	-1.622325244958724E-003	2.000000000000000E+000	-9.4949191E-006	6.3035031E-007
2	1	0	0	1	4.102191896369914E+002	-3.8507563E-001	-3.8525701E-001	-1.582409319856499E-003	2.000000000000000E+000	-9.5052692E-006	6.0963430E-007
2	1	0	1	1	4.102257896368246E+002	-3.8177690E-001	-3.8196629E-001	-1.546868415410546E-003	2.000000000000000E+000	-9.5153564E-006	5.9085158E-007
2	1	0	1	1	4.102325896366528E+002	-3.7837818E-001	-3.7854296E-001	-1.512104255213372E-003	2.000000000000000E+000	-9.5255155E-006	5.7239640E-007
2	1	0	0	1	4.102391896364861E+002	-3.7507945E-001	-3.7525228E-001	-1.481256161150669E-003	2.000000000000000E+000	-9.5351752E-006	5.5584474E-007
2	1	0	1	1	4.102457896363194E+002	-3.7178069E-001	-3.7193844E-001	-1.444925481852505E-003	2.000000000000000E+000	-9.5445885E-006	5.3742332E-007
2	1	0	1	1	4.102525896361476E+002	-3.6838201E-001	-3.6852399E-001	-1.408196831865396E-003	2.000000000000000E+000	-9.5540390E-006	5.1895432E-007
2	1	0	0	1	4.102591896359809E+002	-3.6508325E-001	-3.6524579E-001	-1.377956150099634E-003	2.000000000000000E+000	-9.5630112E-006	5.0329265E-007
2	1	0	1	1	4.102657896358141E+002	-3.6177340E-001	-3.6194074E-001	-1.339136807746402E-003	2.000000000000000E+000	-9.5717378E-006	4.8468814E-007
2	1	0	0	1	4.102723896356474E+002	-3.5845247E-001	-3.5862136E-001	-1.304436460198606E-003	2.000000000000000E+000	-9.5802152E-006	4.6779877E-007
2	1	0	0	1	4.102791896354756E+002	-3.5505375E-001	-3.5523951E-001	-1.272936413791580E-003	2.000000000000000E+000	-9.5887326E-006	4.5219730E-007
2	1	0	1	1	4.102857896353089E+002	-3.5175502E-001	-3.5193837E-001	-1.237581252098599E-003	2.000000000000000E+000	-9.5967907E-006	4.3555232E-007
2	1	0	0	1	4.102923896351422E+002	-3.4845626E-001	-3.4864148E-001	-1.201319531310217E-003	2.000000000000000E+000	-9.6045951E-006	4.1882981E-007
2	1	0	0	1	4.102991896349704E+002	-3.4505755E-001	-3.4523579E-001	-1.168462476183166E-003	2.000000000000000E+000	-9.6124013E-006	4.0339506E-007
2	1	0	1	1	4.103057896348037E+002	-3.4175882E-001	-3.4193227E-001	-1.131891482676409E-003	2.000000000000000E+000	-9.6197627E-006	3.8703021E-007
2	1	0	0	1	4.103123896346369E+002	-3.3846006E-001	-3.3860648E-001	-1.087939520493818E-003	2.000000000000000E+000	-9.6268550E-006	3.6838335E-007
2	1	0	0	1	4.103191896344651E+002	-3.3506137E-001	-3.3518076E-001	-1.056264420200626E-003	2.000000000000000E+000	-9.6339081E-006	3.5403951E-007
2	1	0	1	1	4.103257896342984E+002	-3.3176261E-001	-3.3189514E-001	-1.022826616281235E-003	2.000000000000000E+000	-9.6405565E-006	3.3947120E-007
2	1	0	0	1	4.103323896341317E+002	-3.2846388E-001	-3.2860211E-001	-9.857186659246505E-004	2.000000000000000E+000	-9.6469448E-006	3.2390923E-007
2	1	0	0	1	4.103391896339599E+002	-3.2506517E-001	-3.2520360E-001	-9.500357050759084E-004	2.000000000000000E+000	-9.6532804E-006	3.0895504E-007
2	1	0	1	1	4.103457896337932E+002	-3.2176644E-001	-3.2190493E-001	-9.118035059600513E-004	2.000000000000000E+000	-9.6592012E-006	2.9351403E-007
2	1	0	0	1	4.103523896336264E+002	-3.1846771E-001	-3.1860760E-001	-8.810075722370404E-004	2.000000000000000E+000	-9.6648728E-006	2.8069570E-007
2	1	0	0	1	4.103591896334547E+002	-3.1506902E-001	-3.1522611E-001	-8.354519187984463E-004	2.000000000000000E+000	-9.6704534E-006	2.6335627E-007
2	1	0	1	1	4.103657896332879E+002	-3.1177026E-001	-3.1191885E-001	-7.978328951897583E-004	2.000000000000000E+000	-9.6756139E-006	2.4885912E-007
2	1	0	0	1	4.103723896331212E+002	-3.0847150E-001	-3.0861661E-001	-7.543698173473447E-004	2.000000000000000E+000	-9.6804933E-006	2.3281106E-007
2	1	0	0	1	4.103791896329494E+002	-3.0507281E-001	-3.0521950E-001	-7.105961749023972E-004	2.000000000000000E+000	-9.6852318E-006	2.1688781E-007
2	1	0	1	1	4.103857896327827E+002	-3.0177408E-001	-3.0192965E-001	-6.738849770878599E-004	2.000000000000000E+000	-9.6895692E-006	2.0346586E-007
2	1	0	0	1	4.103923896326160E+002	-2.9847533E-001	-2.9861492E-001	-6.262200023077914E-004	2.000000000000000E+000	-9.6936146E-006	1.8699863E-007
2	1	0	0	1	4.103991896324442E+002	-2.9507661E-001	-2.9521102E-001	-5.687997746311631E-004	2.000000000000000E+000	-9.6974327E-006	1.6791596E-007
2	1	0	1	1	4.104057896322774E+002	-2.9177791E-001	-2.9190052E-001	-5.326585349090833E-004	2.000000000000000E+000	-9.7008360E-006	1.5548331E-007
2	1	0	0	1	4.104123896321107E+002	-2.8847912E-001	-2.8860283E-001	-4.826091369144088E-004	2.000000000000000E+000	-9.7039356E-006	1.3928236E-007
2	1	0	0	1	4.104191896319389E+002	-2.8508043E-001	-2.8519791E-001	-4.247509568661659E-004	2.000000000000000E+000	-9.7067723E-006	1.2113809E-007
2	1	0	1	1	4.104257896317722E+002	-2.8178170E-001	-2.8188586E-001	-3.747034824224706E-004	2.000000000000000E+000	-9.7091770E-006	1.0562361E-007
2	1	0	0	1	4.104323896316055E+002	-2.7848294E-001	-2.7861103E-001	-3.221728148181070E-004	2.000000000000000E+000	-9.7112325E-006	8.9760903E-008
2	1	0	0	1	4.104391896314337E+002	-2.7508426E-001	-2.7522394E-001	-2.630615991733969E-004	2.000000000000000E+000	-9.7129714E-006	7.2400852E-008
2	1	0	1	1	4.104457896312670E+002	-2.7175218E-001	-2.7186942E-001	-1.875774764471314E-004	2.000000000000000E+000	-9.7142229E-006	5.0996579E-008
2	1	0	0	1	4.104523896311002E+002	-2.6845345E-001	-2.6858461E-001	-1.327142695136748E-004	2.000000000000000E+000	-9.7150414E-006	3.5645009E-008
2	1	0	1	1	4.104589896309335E+002	-2.6515472E-001	-2.6529497E-001	-6.037294547904046E-005	2.000000000000000E+000	-9.7154334E-006	1.6016639E-008
2	1	0	1	1	4.104657896307617E+002	-2.6175600E-001	-2.6187724E-001	1.701425911437848E-005	2.000000000000000E+000	-9.7153343E-006	4.4556474E-009
2	1	0	0	1	4.104723896305950E+002	-2.5845724E-001	-2.5860336E-001	9.135943294798676E-005	2.000000000000000E+000	-9.7147513E-006	2.3625857E-008
2	1	0	1	1	4.104789896304283E+002	-2.5515851E-001	-2.5529984E-001	1.731608986877591E-004	2.000000000000000E+000	-9.7136308E-006	4.4207948E-008
2	1	0	1	1	4.104857896302565E+002	-2.5175980E-001	-2.5189701E-001	2.650925667770335E-004	2.000000000000000E+000	-9.7118955E-006	6.6776025E-008
2	1	0	0	1	4.104923896300897E+002	-2.4846107E-001	-2.4860208E-001	3.566698454240706E-004	2.000000000000000E+000	-9.7096099E-006	8.8668862E-008
2	1	0	1	1	4.104989896299230E+002	-2.4516232E-001	-2.4531178E-001	4.589256481419089E-004	2.000000000000000E+000	-9.7066713E-006	1.1257987E-007
2	1	0	1	1	4.105057896297512E+002	-2.4176361E-001	-2.4189845E-001	5.678099680835674E-004	2.000000000000000E+000	-9.7029251E-006	1.3735234E-007
2	1	0	0	1	4.105123896295845E+002	-2.3846486E-001	-2.3860899E-001	6.796013110185132E-004	2.000000000000000E+000	-9.6985668E-006	1.6215898E-007
2	1	0	1	1	4.105189896294178E+002	-2.3516612E-001	-2.3531505E-001	8.015774608717652E-004	2.000000000000000E+000	-9.6934355E-006	1.8862325E-007
2	1	0	1	1	4.105257896292460E+002	-2.3176743E-001	-2.3194212E-001	9.230428450943389E-004	2.000000000000000E+000	-9.6873100E-006	2.1409251E-007
2	1	0	0	1	4.105323896290793E+002	-2.2846869E-001	-2.2862139E-001	1.059038369173020E-003	2.000000000000000E+000	-9.6805206E-006	2.4211883E-007
2	1	0	1	1	4.105389896289125E+002	-2.2516993E-001	-2.2533809E-001	1.208043339329383E-003	2.000000000000000E+000	-9.6727899E-006	2.7221819E-007
2	1	0	1	1	4.105457896287407E+002	-2.2177124E-001	-2.2192502E-001	1.365004825826573E-003	2.000000000000000E+000	-9.6637914E-006	3.0292873E-007
2	1	0	0	1	4.105523896285740E+002	-2.1847251E-001	-2.1861534E-001	1.520009943760675E-003	2.000000000000000E+000	-9.6540280E-006	3.3229747E-007
2	1	0	1	1	4.105589896284073E+002	-2.1517377E-001	-2.1533357E-001	1.682802413900692E-003	2.000000000000000E+000	-9.6432041E-006	3.6236383E-007
2	1	0	1	1	4.105657896282355E+002	-2.1177505E-001	-2.1192481E-001	1.871496730655051E-003	2.000000000000000E+000	-9.6308549E-006	3.9661657E-007
2	1	0	0	1	4.105723896280688E+002	-2.0847632E-001	-2.0861113E-001	2.059832739299355E-003	2.000000000000000E+000	-9.6176327E-006	4.2970404E-007
2	1	0	1	1	4.105789896279020E+002	-2.0517758E-001	-2.0530367E-001	2.240532258292662E-003	2.000000000000000E+000	-9.6031827E-006	4.5998948E-007
2	1	0	1	1	4.105857896277303E+002	-2.0177887E-001	-2.0188986E-001	2.448578998579858E-003	2.000000000000000E+000	-9.5869782E-006	4.9434328E-007
2	1	0	0	1	4.105923896275635E+002	-1.9848014E-001	-1.9858910E-001	2.644354696773622E-003	2.000000000000000E+000	-9.5699179E-006	5.2514002E-007
2	1	0	1	1	4.105989896273968E+002	-1.9518138E-001	-1.9531296E-001	2.853157167555770E-003	2.000000000000000E+000	-9.5514961E-006	5.5725860E-007
2	1	0	1	1	4.106057896272250E+002	-1.9178267E-001	-1.9191997E-001	3.071508208965193E-003	2.000000000000000E+000	-9.5310779E-006	5.8948376E-007
2	1	0	0	1	4.106123896270583E+002	-1.8848395E-001	-1.8864483E-001	3.294433452598854E-003	2.000000000000000E+000	-9.5098276E-006	6.2147785E-007
2	1	0	1	1	4.106189896268916E+002	-1.8516296E-001	-1.8531881E-001	3.524501967998125E-003	2.000000000000000E+000	-9.4870711E-006	6.5315652E-007
2	1	0	0	1	4.106255896267248E+002	-1.8185313E-001	-1.8200941E-001	3.752646182874748E-003	2.000000000000000E+000	-9.4628022E-006	6.8301694E-007
2	1	0	0	1	4.106323896265530E+002	-1.7845441E-001	-1.7859642E-001	3.984793094241479E-003	2.000000000000000E+000	-9.4362367E-006	7.1166977E-007
2	1	0	1	1	4.106389896263863E+002	-1.7515567E-001	-1.7529620E-001	4.209965590052892E-003	2.000000000000000E+000	-9.4089428E-006	7.3799100E-007
2	1	0	0	1	4.106455896262196E+002	-1.7185695E-001	-1.7200238E-001	4.430804907254553E-003	2.000000000000000E+000	-9.3801700E-006	7.6210898E-007
2	1	0	0	1	4.106523896260478E+002	-1.6845824E-001	-1.6858825E-001	4.645696393102609E-003	2.000000000000000E+000	-9.3490407E-006	7.8320983E-007
2	1	0	1	1	4.106589896258811E+002	-1.6515948E-001	-1.6529518E-001	4.862620645023241E-003	2.000000000000000E+000	-9.3174158E-006	8.0376776E-007
2	1	0	0	1	4.106655896257143E+002	-1.6186075E-001	-1.6199148E-001	5.061919791357164E-003	2.000000000000000E+000	-9.2844157E-006	8.1998786E-007
2	1	0	0	1	4.106723896255426E+002	-1.5846203E-001	-1.5856887E-001	5.249676901379050E-003	2.000000000000000E+000	-9.2490809E-006	8.3243538E-007
2	1	0	1	1	4.106789896253758E+002	-1.5516330E-001	-1.5527572E-001	5.428198011456206E-003	2.000000000000000E+000	-9.2135842E-006	8.4286734E-007
2	1	0	0	1	4.106855896252091E+002	-1.5186456E-001	-1.5197156E-001	5.573887557875426E-003	2.000000000000000E+000	-9.1770253E-006	8.4707239E-007
2	1	0	0	1	4.106923896250373E+002	-1.4846586E-001	-1.4855938E-001	5.713683983776720E-003	2.000000000000000E+000	-9.1383927E-006	8.4882134E-007
2	1	0	1	1	4.106989896248706E+002	-1.4516711E-001	-1.4529480E-001	5.822003575061324E-003	2.000000000000000E+000	-9.1001011E-006	8.4590687E-007
2	1	0	0	1	4.107055896247039E+002	-1.4186837E-001	-1.4198093E-001	5.914134702713139E-003	2.000000000000000E+000	-9.0611275E-006	8.3969434E-007
2	1	0	0	1	4.107123896245321E+002	-1.3846967E-001	-1.3859940E-001	5.990595324631906E-003	2.000000000000000E+000	-9.0204048E-006	8.3029289E-007
2	1	0	1	1	4.107189896243653E+002	-1.3517092E-001	-1.3528188E-001	6.030311768275474E-003	2.000000000000000E+000	-8.9805035E-006	8.1579191E-007
2	1	0	0	1	4.107255896241986E+002	-1.3187218E-001	-1.3198605E-001	6.059062820835015E-003	2.000000000000000E+000	-8.9403693E-006	7.9971176E-007
2	1	0	0	1	4.107323896240268E+002	-1.2847349E-001	-1.2859957E-001	6.072084368982655E-003	2.000000000000000E+000	-8.8988836E-006	7.8086742E-007
2	1	0	1	1	4.107389896238601E+002	-1.2517473E-001	-1.2526572E-001	6.052561231687556E-003	2.000000000000000E+000	-8.8586639E-006	7.5817843E-007
2	1	0	0	1	4.107455896236934E+002	-1.2187599E-001	-1.2198219E-001	6.002873785170490E-003	2.000000000000000E+000	-8.8186398E-006	7.3224368E-007
2	1	0	0	1	4.107523896235216E+002	-1.1847728E-001	-1.1857513E-001	5.950415510839491E-003	2.000000000000000E+000	-8.7777471E-006	7.0557127E-007
2	1	0	1	1	4.107589896233549E+002	-1.1517854E-001	-1.1527818E-001	5.877235704125849E-003	2.000000000000000E+000	-8.7384906E-006	6.7751699E-007
2	1	0	0	1	4.107655896231881E+002	-1.1187980E-001	-1.1196671E-001	5.790803906287084E-003	2.000000000000000E+000	-8.6997434E-006	6.4837729E-007
2	1	0	0	1	4.107723896230164E+002	-1.0848109E-001	-1.0856781E-001	5.692021278931272E-003	2.000000000000000E+000	-8.6604523E-006	6.1797027E-007
2	1	0	1	1	4.107789896228496E+002	-1.0518235E-001	-1.0529102E-001	5.585595093422567E-003	2.000000000000000E+000	-8.6230211E-006	5.8811304E-007
2	1	0	0	1	4.107855896226829E+002	-1.0188361E-001	-1.0196881E-001	5.490470823497171E-003	2.000000000000000E+000	-8.5862475E-006	5.5985680E-007
2	1	0	0	1	4.107922896225136E+002	-9.8518223E-002	-9.8621741E-002	5.383660411600197E-003	2.000000000000000E+000	-8.5495885E-006	5.3094595E-007
2	1	0	1	1	4.107989896223444E+002	-9.5152847E-002	-9.5256925E-002	5.268682044576645E-003	2.000000000000000E+000	-8.5136853E-006	5.0187845E-007
2	1	0	0	1	4.108055896221776E+002	-9.1854088E-002	-9.1939427E-002	5.156973706713572E-003	2.000000000000000E+000	-8.4790681E-006	4.7412919E-007
2	1	0	1	1	4.108121896220109E+002	-8.8555358E-002	-8.8644750E-002	5.035475851279168E-003	2.000000000000000E+000	-8.4452049E-006	4.4636849E-007
2	1	0	1	1	4.108189896218391E+002	-8.5156649E-002	-8.5272871E-002	4.919210006725450E-003	2.000000000000000E+000	-8.4111307E-006	4.1947516E-007
2	1	0	0	1	4.108255896216724E+002	-8.1857905E-002	-8.1967704E-002	4.821766260344439E-003	2.000000000000000E+000	-8.3787754E-006	3.9522911E-007
2	1	0	1	1	4.108321896215057E+002	-7.8559160E-002	-7.8679144E-002	4.718694415896611E-003	2.000000000000000E+000	-8.3470677E-006	3.7126284E-007
2	1	0	1	1	4.108389896213339E+002	-7.5160459E-002	-7.5289972E-002	4.619094655026870E-003	2.000000000000000E+000	-8.3150971E-006	3.4777150E-007
2	1	0	0	1	4.108455896211672E+002	-7.1861722E-002	-7.1970247E-002	4.531802478535005E-003	2.000000000000000E+000	-8.2846818E-006	3.2615495E-007
2	1	0	1	1	4.108521896210004E+002	-6.8562977E-002	-6.8668701E-002	4.444300585115947E-003	2.000000000000000E+000	-8.2548449E-006	3.0518436E-007
2	1	0	1	1	4.108589896208287E+002	-6.5164268E-002	-6.5264910E-002	4.356322330932041E-003	2.000000000000000E+000	-8.2246961E-006	2.8431498E-007
2	1	0	0	1	4.108655896206619E+002	-6.1865535E-002	-6.1988045E-002	4.266880441233909E-003	2.000000000000000E+000	-8.1960279E-006	2.6449558E-007
2	1	0	1	1	4.108721896204952E+002	-5.8566790E-002	-5.8692418E-002	4.200103248513191E-003	2.000000000000000E+000	-8.1678672E-006	2.4651422E-007
2	1	0	1	1	4.108789896203234E+002	-5.5168085E-002	-5.5294216E-002	4.131526174023764E-003	2.000000000000000E+000	-8.1393218E-006	2.2844949E-007
2	1	0	0	1	4.108855896201567E+002	-5.1869340E-002	-5.2003294E-002	4.058103461284185E-003	2.000000000000000E+000	-8.1120688E-006	2.1103475E-007
2	1	0	1	1	4.108921896199899E+002	-4.8570599E-002	-4.8698768E-002	4.006801580544554E-003	2.000000000000000E+000	-8.0852215E-006	1.9512630E-007
2	1	0	1	1	4.108989896198182E+002	-4.5171894E-002	-4.5310743E-002	3.943003774475089E-003	2.000000000000000E+000	-8.0579784E-006	1.7866043E-007
2	1	0	0	1	4.109055896196514E+002	-4.1873150E-002	-4.2001951E-002	3.890338000928750E-003	2.000000000000000E+000	-8.0319169E-006	1.6340179E-007
2	1	0	1	1	4.109121896194847E+002	-3.8574409E-002	-3.8689028E-002	3.836006138650795E-003	2.000000000000000E+000	-8.0061909E-006	1.4841135E-007
2	1	0	1	1	4.109189896193129E+002	-3.5175703E-002	-3.5299417E-002	3.784123636614831E-003	2.000000000000000E+000	-7.9800429E-006	1.3357736E-007
2	1	0	0	1	4.109255896191462E+002	-3.1876963E-002	-3.1988788E-002	3.735660475710278E-003	2.000000000000000E+000	-7.9550100E-006	1.1949925E-007
2	1	0	1	1	4.109321896189795E+002	-2.8578222E-002	-2.8672172E-002	3.697241143224048E-003	2.000000000000000E+000	-7.9302354E-006	1.0600793E-007
2	1	0	1	1	4.109389896188077E+002	-2.5179518E-002	-2.5287008E-002	3.650368860689920E-003	2.000000000000000E+000	-7.9050205E-006	9.2306905E-008
2	1	0	0	1	4.109455896186410E+002	-2.1880774E-002	-2.1990618E-002	3.617491636335526E-003	2.000000000000000E+000	-7.8808134E-006	7.9550873E-008
2	1	0	1	1	4.109521896184742E+002	-1.8582031E-002	-1.8686790E-002	3.572378908029347E-003	2.000000000000000E+000	-7.8568528E-006	6.6756293E-008
2	1	0	1	1	4.109589896183024E+002	-1.5183326E-002	-1.5295906E-002	3.545281442347926E-003	2.000000000000000E+000	-7.8324183E-006	5.4228291E-008
2	1	0	0	1	4.109655896181357E+002	-1.1873476E-002	-1.2006829E-002	3.509734430614725E-003	2.000000000000000E+000	-7.8089215E-006	4.2140780E-008
2	1	0	1	1	4.109721896179690E+002	-8.5525215E-003	-8.6588031E-003	3.481507642694240E-003	2.000000000000000E+000	-7.7856203E-006	3.0145689E-008
2	1	0	0	1	4.109787896178022E+002	-5.2537788E-003	-5.3684544E-003	3.448936477313216E-003	2.000000000000000E+000	-7.7625236E-006	1.8515458E-008
2	1	0	0	1	4.109855896176305E+002	-1.8550748E-003	-1.9899695E-003	3.420427874273931E-003	2.000000000000000E+000	-7.7389332E-006	6.8065473E-009
2	1	0	1	1	4.109921896174637E+002	1.4492433E-003	1.3567199E-003	3.400328982388602E-003	2.000000000000000E+000	-7.7162076E-006	4.6132937E-009
2	1	0	0	1	4.109987896172970E+002	4.7424086E-003	4.6515185E-003	3.367847067481018E-003	2.000000000000000E+000	-7.6936258E-006	1.5665604E-008
2	1	0	0	1	4.110055896171252E+002	8.1411107E-003	8.0544204E-003	3.346413010331166E-003	2.000000000000000E+000	-7.6705601E-006	2.6953417E-008
2	1	0	1	1	4.110121896169585E+002	1.1439852E-002	1.1354179E-002	3.318326805917133E-003	2.000000000000000E+000	-7.6483411E-006	3.7676877E-008
2	1	0	0	1	4.110187896167918E+002	1.4738593E-002	1.4668055E-002	3.302600549856538E-003	2.000000000000000E+000	-7.6262459E-006	4.8442725E-008
2	1	0	0	1	4.110255896166200E+002	1.8137297E-002	1.8066633E-002	3.280464650197240E-003	2.000000000000000E+000	-7.6036208E-006	5.9266952E-008
2	1	0	1	1	4.110321896164533E+002	2.1436036E-002	2.1359652E-002	3.256752530069205E-003	2.000000000000000E+000	-7.5818284E-006	6.9563100E-008
2	1	0	0	1	4.110387896162865E+002	2.4734778E-002	2.4659410E-002	3.243583521483143E-003	2.000000000000000E+000	-7.5601388E-006	7.9984858E-008
2	1	0	0	1	4.110455896161147E+002	2.8133480E-002	2.8045589E-002	3.220433277419957E-003	2.000000000000000E+000	-7.5379226E-006	9.0318949E-008
2	1	0	1	1	4.110521896159480E+002	3.1432223E-002	3.1341340E-002	3.208777546994189E-003	2.000000000000000E+000	-7.5164812E-006	1.0056739E-007
2	1	0	0	1	4.110587896157813E+002	3.4730960E-002	3.4654517E-002	3.197786335113049E-003	2.000000000000000E+000	-7.4951095E-006	1.1081774E-007
2	1	0	0	1	4.110655896156095E+002	3.8129669E-002	3.8048264E-002	3.180366107638603E-003	2.000000000000000E+000	-7.4731824E-006	1.2100740E-007
2	1	0	1	1	4.110721896154428E+002	4.1428398E-002	4.1335434E-002	3.164200662104114E-003	2.000000000000000E+000	-7.4520281E-006	1.3079361E-007
2	1	0	0	1	4.110787896152760E+002	4.4727143E-002	4.4664573E-002	3.159272337719218E-003	2.000000000000000E+000	-7.4309282E-006	1.4110755E-007
2	1	0	0	1	4.110855896151043E+002	4.8125852E-002	4.8073068E-002	3.141377442140450E-003	2.000000000000000E+000	-7.4092750E-006	1.5101566E-007
2	1	0	1	1	4.110921896149375E+002	5.1424593E-002	5.1355150E-002	3.130033462518146E-003	2.000000000000000E+000	-7.3883484E-006	1.6074334E-007
2	1	0	0	1	4.110987896147708E+002	5.4723330E-002	5.4669715E-002	3.119248786121409E-003	2.000000000000000E+000	-7.3674773E-006	1.7052844E-007
2	1	0	0	1	4.111055896145990E+002	5.8122031E-002	5.8085021E-002	3.109537915770504E-003	2.000000000000000E+000	-7.3460546E-006	1.8061758E-007
2	1	0	1	1	4.111121896144323E+002	6.1420776E-002	6.1357185E-002	3.097268866561857E-003	2.000000000000000E+000	-7.3253536E-006	1.9003970E-007
2	1	0	0	1	4.111187896142656E+002	6.4719513E-002	6.4649120E-002	3.089986985560244E-003	2.000000000000000E+000	-7.3046958E-006	1.9976494E-007
2	1	0	0	1	4.111255896140938E+002	6.8118215E-002	6.8043627E-002	3.082540046701374E-003	2.000000000000000E+000	-7.2834769E-006	2.0974720E-007
2	1	0	1	1	4.111321896139270E+002	7.1416959E-002	7.1355730E-002	3.077447322175436E-003	2.000000000000000E+000	-7.2629236E-006	2.1959350E-007
2	1	0	0	1	4.111387896137603E+002	7.4715704E-002	7.4641742E-002	3.065636513232078E-003	2.000000000000000E+000	-7.2424114E-006	2.2882445E-007
2	1	0	1	1	4.111453896135936E+002	7.8047767E-002	7.7990472E-002	3.070742002243311E-003	2.000000000000000E+000	-7.2219141E-006	2.3948863E-007
2	1	0	1	1	4.111521896134218E+002	8.1446469E-002	8.1375763E-002	3.057838207708618E-003	2.000000000000000E+000	-7.2008420E-006	2.4883391E-007
2	1	0	0	1	4.111587896132551E+002	8.4745198E-002	8.4669918E-002	3.053335176082327E-003	2.000000000000000E+000	-7.1804557E-006	2.5852563E-007
2	1	0	1	1	4.111653896130883E+002	8.8043943E-002	8.7954044E-002	3.045928836157452E-003	2.000000000000000E+000	-7.1601003E-006	2.6790175E-007
2	1	0	1	1	4.111721896129166E+002	9.1442652E-002	9.1371685E-002	3.037971583914154E-003	2.000000000000000E+000	-7.1391669E-006	2.7758458E-007
2	1	0	0	1	4.111787896127498E+002	9.4741389E-002	9.4659299E-002	3.038416755286266E-003	2.000000000000000E+000	-7.1188897E-006	2.8761440E-007
2	1	0	1	1	4.111853896125831E+002	9.8040134E-002	9.7956456E-002	3.035703049317821E-003	2.000000000000000E+000	-7.0986030E-006	2.9736671E-007
2	0	0	1	1	4.111895896124770E+002	9.9906117E-002	9.9806957E-002	2.959750301670283E-003	2.000000000000000E+000	-7.0857718E-006	2.9540368E-007
2	0	0	0	1	4.111931896123861E+002	9.8073460E-002	9.7928293E-002	2.009967535589876E-003	2.000000000000000E+000	-7.0783376E-006	1.9683269E-007
2	0	0	1	1	4.111997896122193E+002	9.4774716E-002	9.4607286E-002	1.600697649731350E-003	2.000000000000000E+000	-7.0667816E-006	1.5143766E-007
2	0	0	1	1	4.112065896120475E+002	9.1376014E-002	9.1205537E-002	1.418503282093295E-003	2.000000000000000E+000	-7.0567876E-006	1.2937535E-007
2	0	0	0	1	4.112131896118808E+002	8.8077269E-002	8.7893501E-002	1.283373635578754E-003	2.000000000000000E+000	-7.0481174E-006	1.1280020E-007
2	0	0	1	1	4.112197896117141E+002	8.4778525E-002	8.4615178E-002	1.175607218040875E-003	2.000000000000000E+000	-7.0402593E-006	9.9474214E-008
2	0	0	1	1	4.112265896115423E+002	8.1379823E-002	8.1211001E-002	1.074047887292789E-003	2.000000000000000E+000	-7.0328692E-006	8.7224507E-008
2	0	0	0	1	4.112331896113756E+002	7.8081086E-002	7.7926189E-002	9.823396215627653E-004	2.000000000000000E+000	-7.0263204E-006	7.6549981E-008
2	0	0	1	1	4.112397896112088E+002	7.4749023E-002	7.4596398E-002	8.939297093396199E-004	2.000000000000000E+000	-7.0203805E-006	6.6683938E-008
2	0	0	0	1	4.112463896110421E+002	7.1450278E-002	7.1290158E-002	8.244632447106919E-004	2.000000000000000E+000	-7.0149595E-006	5.8776116E-008
2	0	0	0	1	4.112531896108703E+002	6.8051577E-002	6.7895524E-002	7.530325942980212E-004	2.000000000000000E+000	-7.0098513E-006	5.1127543E-008
2	0	0	1	1	4.112597896107036E+002	6.4752840E-002	6.4612240E-002	6.879727340143877E-004	2.000000000000000E+000	-7.0053370E-006	4.4451458E-008
2	0	0	0	1	4.112663896105369E+002	6.1454091E-002	6.1326597E-002	6.222307405550978E-004	2.000000000000000E+000	-7.0012593E-006	3.8159293E-008
2	0	0	0	1	4.112731896103651E+002	5.8055393E-002	5.7929613E-002	5.638251965365305E-004	2.000000000000000E+000	-6.9974849E-006	3.2662175E-008
2	0	0	1	1	4.112797896101984E+002	5.4756649E-002	5.4603714E-002	4.988711457144770E-004	2.000000000000000E+000	-6.9942216E-006	2.7240217E-008
2	0	0	0	1	4.112863896100316E+002	5.1457912E-002	5.1315725E-002	4.449517508495161E-004	2.000000000000000E+000	-6.9913513E-006	2.2833021E-008
2	0	0	0	1	4.112931896098598E+002	4.8059214E-002	4.7926489E-002	3.924070958911826E-004	2.000000000000000E+000	-6.9887601E-006	1.8806695E-008
2	0	0	1	1	4.112997896096931E+002	4.4760469E-002	4.4597100E-002	3.346595462934004E-004	2.000000000000000E+000	-6.9865951E-006	1.4924845E-008
2	0	0	0	1	4.113063896095264E+002	4.1461725E-002	4.1283667E-002	2.885800511118465E-004	2.000000000000000E+000	-6.9847870E-006	1.1913643E-008
2	0	0	0	1	4.113131896093546E+002	3.8063023E-002	3.7904166E-002	2.383262995219113E-004	2.000000000000000E+000	-6.9832490E-006	9.0335597E-009
2	0	0	1	1	4.113197896091879E+002	3.4764286E-002	3.4600019E-002	1.877098459904885E-004	2.000000000000000E+000	-6.9820680E-006	6.4947643E-009
2	0	0	0	1	4.113263896090211E+002	3.1465542E-002	3.1295680E-002	1.442690012879670E-004	2.000000000000000E+000	-6.9812186E-006	4.5149964E-009
2	0	0	0	1	4.113331896088494E+002	2.8066838E-002	2.7889730E-002	9.786052571314539E-005	2.000000000000000E+000	-6.9806492E-006	2.7293037E-009
2	0	0	1	1	4.113397896086826E+002	2.4768097E-002	2.4591114E-002	5.183094667036888E-005	2.000000000000000E+000	-6.9803909E-006	1.2745808E-009
2	0	0	0	1	4.113463896085159E+002	2.1469355E-002	2.1308651E-002	1.293629659914567E-005	2.000000000000000E+000	-6.9804337E-006	2.7565503E-010
2	0	0	0	1	4.113531896083441E+002	1.8070655E-002	1.7903332E-002	-3.279798084013426E-005	2.000000000000000E+000	-6.9807484E-006	5.8719313E-010
2	0	0	1	1	4.113597896081774E+002	1.4771912E-002	1.4627612E-002	-7.700044056946337E-005	2.000000000000000E+000	-6.9813377E-006	1.1263326E-009
2	0	0	0	1	4.113663896080107E+002	1.1473172E-002	1.1305979E-002	-1.210941867327616E-004	2.000000000000000E+000	-6.9822331E-006	1.3690883E-009
2	0	0	0	1	4.113731896078389E+002	8.0744689E-003	7.8995144E-003	-1.618760422654000E-004	2.000000000000000E+000	-6.9834409E-006	1.2787421E-009
2	0	0	1	1	4.113797896076721E+002	4.7757286E-003	4.6108845E-003	-1.986018629679618E-004	2.000000000000000E+000	-6.9848629E-006	9.1573027E-010
2	0	0	0	1	4.113863896075054E+002	1.4769877E-003	1.2771047E-003	-2.464572850385586E-004	2.000000000000000E+000	-6.9865855E-006	3.1475175E-010
2	0	0	0	1	4.113931896073336E+002	-1.9217156E-003	-2.1395970E-003	-2.807034403758731E-004	2.000000000000000E+000	-6.9886360E-006	6.0059224E-010
2	0	0	1	1	4.113997896071669E+002	-5.2204588E-003	-5.4446352E-003	-3.193056188630795E-004	2.000000000000000E+000	-6.9908542E-006	1.7385026E-009
2	0	0	0	1	4.114063896070002E+002	-8.5192006E-003	-8.7360656E-003	-3.584335979705134E-004	2.000000000000000E+000	-6.9933403E-006	3.1312994E-009
2	0	0	0	1	4.114130896068309E+002	-1.1896073E-002	-1.2113173E-002	-4.047582519260996E-004	2.000000000000000E+000	-6.9961402E-006	4.9029070E-009
2	0	0	1	1	4.114197896066617E+002	-1.5249968E-002	-1.5442291E-002	-4.349501560000149E-004	2.000000000000000E+000	-6.9991943E-006	6.7166268E-009
2	0	0	0	1	4.114263896064949E+002	-1.8548710E-002	-1.8762019E-002	-4.728546270371227E-004	2.000000000000000E+000	-7.0024253E-006	8.8717069E-009
2	0	0	1	1	4.114329896063282E+002	-2.1847455E-002	-2.2042001E-002	-5.082203258022361E-004	2.000000000000000E+000	-7.0059045E-006	1.1202193E-008
2	0	0	1	1	4.114397896061564E+002	-2.5246158E-002	-2.5420422E-002	-5.482272060362420E-004	2.000000000000000E+000	-7.0097399E-006	1.3936167E-008
2	0	0	0	1	4.114463896059897E+002	-2.8544901E-002	-2.8736081E-002	-5.872775865858157E-004	2.000000000000000E+000	-7.0137121E-006	1.6876056E-008
2	0	0	1	1	4.114529896058230E+002	-3.1843644E-002	-3.2047734E-002	-6.252421817710724E-004	2.000000000000000E+000	-7.0179581E-006	2.0037595E-008
2	0	0	1	1	4.114597896056512E+002	-3.5242349E-002	-3.5453182E-002	-6.620693897654469E-004	2.000000000000000E+000	-7.0225792E-006	2.3472467E-008
2	0	0	0	1	4.114663896054844E+002	-3.8541086E-002	-3.8746387E-002	-6.986388162204087E-004	2.000000000000000E+000	-7.0272990E-006	2.7069730E-008
2	0	0	1	1	4.114729896053177E+002	-4.1839831E-002	-4.2060904E-002	-7.370941920119842E-004	2.000000000000000E+000	-7.0322908E-006	3.1002848E-008
2	0	0	1	1	4.114797896051459E+002	-4.5238536E-002	-4.5450833E-002	-7.757399288569385E-004	2.000000000000000E+000	-7.0376873E-006	3.5258026E-008
2	0	0	0	1	4.114863896049792E+002	-4.8537277E-002	-4.8759751E-002	-8.120884647496510E-004	2.000000000000000E+000	-7.0431565E-006	3.9597232E-008
2	0	0	1	1	4.114929896048125E+002	-5.1836021E-002	-5.2035857E-002	-8.502186077445628E-004	2.000000000000000E+000	-7.0488886E-006	4.4241855E-008
2	0	0	1	1	4.114997896046407E+002	-5.5234727E-002	-5.5472340E-002	-8.903186433296155E-004	2.000000000000000E+000	-7.0550550E-006	4.9388060E-008
2	0	0	0	1	4.115063896044740E+002	-5.8533467E-002	-5.8745071E-002	-9.257233943875077E-004	2.000000000000000E+000	-7.0612764E-006	5.4381687E-008
2	0	0	1	1	4.115129896043072E+002	-6.1832208E-002	-6.2052913E-002	-9.655093725086730E-004	2.000000000000000E+000	-7.0677615E-006	5.9912672E-008
2	0	0	1	1	4.115197896041354E+002	-6.5230913E-002	-6.5443538E-002	-1.006927371615046E-003	2.000000000000000E+000	-7.0747078E-006	6.5896891E-008
2	0	0	0	1	4.115263896039687E+002	-6.8529658E-002	-6.8739422E-002	-1.044535883026276E-003	2.000000000000000E+000	-7.0817041E-006	7.1800791E-008
2	0	0	1	1	4.115329896038020E+002	-7.1828395E-002	-7.2036251E-002	-1.089425263383716E-003	2.000000000000000E+000	-7.0889928E-006	7.8478109E-008
2	0	0	1	1	4.115397896036302E+002	-7.5227097E-002	-7.5450413E-002	-1.132888349987595E-003	2.000000000000000E+000	-7.0967935E-006	8.5476891E-008
2	0	0	0	1	4.115463896034635E+002	-7.8525841E-002	-7.8744195E-002	-1.175400094462017E-003	2.000000000000000E+000	-7.1046397E-006	9.2555936E-008
2	0	0	1	1	4.115529896032967E+002	-8.1824593E-002	-8.2046308E-002	-1.222339422065483E-003	2.000000000000000E+000	-7.1128002E-006	1.0028844E-007
2	0	0	1	1	4.115597896031250E+002	-8.5223287E-002	-8.5417606E-002	-1.265056350772887E-003	2.000000000000000E+000	-7.1215145E-006	1.0805808E-007
2	0	0	0	1	4.115663896029582E+002	-8.8522032E-002	-8.8721491E-002	-1.316800433232859E-003	2.000000000000000E+000	-7.1302657E-006	1.1682850E-007
2	0	0	1	1	4.115729896027915E+002	-9.1820784E-002	-9.2005938E-002	-1.365640273040002E-003	2.000000000000000E+000	-7.1393592E-006	1.2564702E-007
2	0	0	1	1	4.115797896026197E+002	-9.5219485E-002	-9.5425688E-002	-1.423740364073937E-003	2.000000000000000E+000	-7.1490963E-006	1.3586140E-007
2	0	0	0	1	4.115863896024530E+002	-9.8540448E-002	-9.8746948E-002	-1.483886218041637E-003	2.000000000000000E+000	-7.1589302E-006	1.4652923E-007
2	0	0	1	1	4.115929896022863E+002	-1.0185029E-001	-1.0204855E-001	-1.538821568950272E-003	2.000000000000000E+000	-7.1691388E-006	1.5703451E-007
2	0	0	0	1	4.115995896021195E+002	-1.0514903E-001	-1.0535879E-001	-1.598646997429870E-003	2.000000000000000E+000	-7.1797376E-006	1.6843153E-007
2	0	0	0	1	4.116063896019477E+002	-1.0854773E-001	-1.0873722E-001	-1.664893795198923E-003	2.000000000000000E+000	-7.1910872E-006	1.8103593E-007
2	0	0	1	1	4.116129896017810E+002	-1.1184648E-001	-1.1203705E-001	-1.735648082164212E-003	2.000000000000000E+000	-7.2025441E-006	1.9445689E-007
2	0	0	0	1	4.116195896016143E+002	-1.1514522E-001	-1.1531887E-001	-1.812892444104368E-003	2.000000000000000E+000	-7.2144962E-006	2.0906072E-007
2	0	0	0	1	4.116263896014425E+002	-1.1854392E-001	-1.1873779E-001	-1.891733596312402E-003	2.000000000000000E+000	-7.2273419E-006	2.2462028E-007
2	0	0	1	1	4.116329896012758E+002	-1.2184266E-001	-1.2202656E-001	-1.980044181952202E-003	2.000000000000000E+000	-7.2403523E-006	2.4161798E-007
2	0	0	0	1	4.116395896011090E+002	-1.2514141E-001	-1.2534317E-001	-2.070558020689824E-003	2.000000000000000E+000	-7.2539697E-006	2.5953031E-007
2	0	0	0	1	4.116463896009373E+002	-1.2854011E-001	-1.2874514E-001	-2.170989759421595E-003	2.000000000000000E+000	-7.2686544E-006	2.7950438E-007
2	0	0	1	1	4.116529896007705E+002	-1.3183886E-001	-1.3205518E-001	-2.273822744731056E-003	2.000000000000000E+000	-7.2835537E-006	3.0027007E-007
2	0	0	0	1	4.116595896006038E+002	-1.3513760E-001	-1.3534045E-001	-2.384165022855683E-003	2.000000000000000E+000	-7.2991729E-006	3.2267397E-007
2	0	0	0	1	4.116663896004320E+002	-1.3853630E-001	-1.3876013E-001	-2.509081112020799E-003	2.000000000000000E+000	-7.3160613E-006	3.4816043E-007
2	0	0	1	1	4.116729896002653E+002	-1.4183505E-001	-1.4204769E-001	-2.630689569317224E-003	2.000000000000000E+000	-7.3332608E-006	3.7368338E-007
2	0	0	0	1	4.116795896000986E+002	-1.4513379E-001	-1.4535679E-001	-2.765006560700074E-003	2.000000000000000E+000	-7.3513174E-006	4.0191247E-007
2	0	0	0	1	4.116863895999268E+002	-1.4853249E-001	-1.4874737E-001	-2.905903566806946E-003	2.000000000000000E+000	-7.3708588E-006	4.3224551E-007
2	0	0	1	1	4.116929895997600E+002	-1.5183124E-001	-1.5203592E-001	-3.055289157722043E-003	2.000000000000000E+000	-7.3907718E-006	4.6451370E-007
2	0	0	0	1	4.116995895995933E+002	-1.5512998E-001	-1.5533620E-001	-3.211168136203917E-003	2.000000000000000E+000	-7.4117029E-006	4.9881066E-007
2	0	0	0	1	4.117063895994215E+002	-1.5852869E-001	-1.5875079E-001	-3.385098736180217E-003	2.000000000000000E+000	-7.4343861E-006	5.3738711E-007
2	0	0	1	1	4.117129895992548E+002	-1.6182743E-001	-1.6204342E-001	-3.556116588636846E-003	2.000000000000000E+000	-7.4575364E-006	5.7624533E-007
2	0	0	0	1	4.117195895990881E+002	-1.6512619E-001	-1.6536456E-001	-3.728264117914173E-003	2.000000000000000E+000	-7.4818436E-006	6.1652275E-007
2	0	0	0	1	4.117263895989163E+002	-1.6852489E-001	-1.6876766E-001	-3.927956902831889E-003	2.000000000000000E+000	-7.5081321E-006	6.6291210E-007
2	0	0	1	1	4.117329895987496E+002	-1.7182362E-001	-1.7205364E-001	-4.113559706335451E-003	2.000000000000000E+000	-7.5349158E-006	7.0775292E-007
2	0	0	0	1	4.117395895985828E+002	-1.7512237E-001	-1.7534919E-001	-4.322498241284251E-003	2.000000000000000E+000	-7.5630173E-006	7.5794657E-007
2	0	0	0	1	4.117463895984110E+002	-1.7852107E-001	-1.7873007E-001	-4.540201701335411E-003	2.000000000000000E+000	-7.5934136E-006	8.1147056E-007
2	0	0	1	1	4.117529895982443E+002	-1.8181981E-001	-1.8206596E-001	-4.755017484361190E-003	2.000000000000000E+000	-7.6243300E-006	8.6572686E-007
2	0	0	0	1	4.117595895980776E+002	-1.8512966E-001	-1.8537700E-001	-4.969980021208652E-003	2.000000000000000E+000	-7.6566812E-006	9.2132001E-007
2	0	0	1	1	4.117661895979109E+002	-1.8845062E-001	-1.8868387E-001	-5.194801696112930E-003	2.000000000000000E+000	-7.6904944E-006	9.8017529E-007
2	0	0	1	1	4.117729895977391E+002	-1.9184931E-001	-1.9208638E-001	-5.417230707037854E-003	2.000000000000000E+000	-7.7268551E-006	1.0405763E-006
2	0	0	0	1	4.117795895975723E+002	-1.9514805E-001	-1.9536535E-001	-5.650902221289767E-003	2.000000000000000E+000	-7.7636269E-006	1.1039905E-006
2	0	0	1	1	4.117861895974056E+002	-1.9844680E-001	-1.9867681E-001	-5.864400273700651E-003	2.000000000000000E+000	-7.8018847E-006	1.1651204E-006
2	0	0	1	1	4.117929895972338E+002	-2.0184550E-001	-2.0204829E-001	-6.109809444509048E-003	2.000000000000000E+000	-7.8428739E-006	1.2344765E-006
2	0	0	0	1	4.117995895970671E+002	-2.0514424E-001	-2.0536338E-001	-6.334814544122019E-003	2.000000000000000E+000	-7.8841895E-006	1.3009389E-006
2	0	0	1	1	4.118061895969004E+002	-2.0844299E-001	-2.0865890E-001	-6.554965927110350E-003	2.000000000000000E+000	-7.9269757E-006	1.3677520E-006
2	0	0	1	1	4.118129895967286E+002	-2.1184167E-001	-2.1208578E-001	-6.771675002649608E-003	2.000000000000000E+000	-7.9725469E-006	1.4361760E-006
2	0	0	0	1	4.118195895965619E+002	-2.1514043E-001	-2.1540670E-001	-6.988369987811896E-003	2.000000000000000E+000	-8.0182162E-006	1.5053417E-006
2	0	0	1	1	4.118261895963951E+002	-2.1843918E-001	-2.1867374E-001	-7.171200381102028E-003	2.000000000000000E+000	-8.0651980E-006	1.5681532E-006
2	0	0	1	1	4.118329895962233E+002	-2.2183789E-001	-2.2207560E-001	-7.376930645114022E-003	2.000000000000000E+000	-8.1149265E-006	1.6382363E-006
2	0	0	0	1	4.118395895960566E+002	-2.2513664E-001	-2.2538979E-001	-7.538490583344035E-003	2.000000000000000E+000	-8.1644084E-006	1.6990988E-006
2	0	0	1	1	4.118461895958899E+002	-2.2843538E-001	-2.2870488E-001	-7.695598401308720E-003	2.000000000000000E+000	-8.2149318E-006	1.7600210E-006
2	0	0	1	1	4.118529895957181E+002	-2.3183407E-001	-2.3210372E-001	-7.836934830265818E-003	2.000000000000000E+000	-8.2680081E-006	1.8189818E-006
2	0	0	0	1	4.118595895955514E+002	-2.3513283E-001	-2.3536871E-001	-7.949391350727312E-003	2.000000000000000E+000	-8.3203349E-006	1.8710380E-006
2	0	0	1	1	4.118661895953846E+002	-2.3843156E-001	-2.3867391E-001	-8.058695013460196E-003	2.000000000000000E+000	-8.3734067E-006	1.9234003E-006
2	0	0	1	1	4.118729895952129E+002	-2.4183026E-001	-2.4206410E-001	-8.149808208327156E-003	2.000000000000000E+000	-8.4287622E-006	1.9727761E-006
2	0	0	0	1	4.118795895950461E+002	-2.4512900E-001	-2.4536769E-001	-8.209741783017907E-003	2.000000000000000E+000	-8.4829926E-006	2.0144055E-006
2	0	0	1	1	4.118861895948794E+002	-2.4842775E-001	-2.4866237E-001	-8.258069999161913E-003	2.000000000000000E+000	-8.5375859E-006	2.0534712E-006
2	0	0	1	1	4.118929895947076E+002	-2.5182647E-001	-2.5207046E-001	-8.283725285946231E-003	2.000000000000000E+000	-8.5940783E-006	2.0880825E-006
2	0	0	0	1	4.118995895945409E+002	-2.5512519E-001	-2.5537094E-001	-8.305135980117478E-003	2.000000000000000E+000	-8.6490400E-006	2.1208905E-006
2	0	0	1	1	4.119061895943742E+002	-2.5842395E-001	-2.5865442E-001	-8.307018367486294E-003	2.000000000000000E+000	-8.7040853E-006	2.1486469E-006
2	0	0	1	1	4.119129895942024E+002	-2.6182267E-001	-2.6206252E-001	-8.279173599779210E-003	2.000000000000000E+000	-8.7607223E-006	2.1696610E-006
2	0	0	0	1	4.119195895940356E+002	-2.6512140E-001	-2.6535356E-001	-8.254104462806292E-003	2.000000000000000E+000	-8.8154984E-006	2.1902561E-006
2	0	0	1	1	4.119261895938689E+002	-2.6842013E-001	-2.6867101E-001	-8.202133623975268E-003	2.000000000000000E+000	-8.8700408E-006	2.2036754E-006
2	0	0	1	1	4.119328895936997E+002	-2.7177399E-001	-2.7201307E-001	-8.160838883260748E-003	2.000000000000000E+000	-8.9250898E-006	2.2198549E-006
2	0	0	0	1	4.119395895935304E+002	-2.7515090E-001	-2.7537745E-001	-8.106571791116346E-003	2.000000000000000E+000	-8.9798150E-006	2.2323670E-006
2	0	0	1	1	4.119461895933637E+002	-2.7844965E-001	-2.7865586E-001	-8.019856966590508E-003	2.000000000000000E+000	-9.0332396E-006	2.2347801E-006
2	0	0	0	1	4.119527895931969E+002	-2.8174835E-001	-2.8196800E-001	-7.936150766909086E-003	2.000000000000000E+000	-9.0861204E-006	2.2377405E-006
2	0	0	0	1	4.119595895930252E+002	-2.8514707E-001	-2.8536800E-001	-7.868385873734951E-003	2.000000000000000E+000	-9.1400998E-006	2.2453855E-006
2	0	0	1	1	4.119661895928584E+002	-2.8844583E-001	-2.8867531E-001	-7.778223506708558E-003	2.000000000000000E+000	-9.1919410E-006	2.2453810E-006
2	0	0	0	1	4.119727895926917E+002	-2.9174456E-001	-2.9197901E-001	-7.689308943736248E-003	2.000000000000000E+000	-9.2431765E-006	2.2451168E-006
2	0	0	0	1	4.119795895925199E+002	-2.9514328E-001	-2.9538825E-001	-7.603346538356454E-003	2.000000000000000E+000	-9.2954060E-006	2.2459392E-006
2	0	0	1	1	4.119861895923532E+002	-2.9844201E-001	-2.9869273E-001	-7.519908276299236E-003	2.000000000000000E+000	-9.3455328E-006	2.2461420E-006
2	0	0	0	1	4.119927895921865E+002	-3.0174074E-001	-3.0198824E-001	-7.429969177004142E-003	2.000000000000000E+000	-9.3950857E-006	2.2437634E-006
2	0	0	0	1	4.119995895920147E+002	-3.0513945E-001	-3.0537543E-001	-7.340831839367942E-003	2.000000000000000E+000	-9.4455363E-006	2.2417096E-006
2	0	0	1	1	4.120061895918479E+002	-3.0843818E-001	-3.0869505E-001	-7.262781116514808E-003	2.000000000000000E+000	-9.4939496E-006	2.2419845E-006
2	0	0	0	1	4.120127895916812E+002	-3.1173694E-001	-3.1199190E-001	-7.178035929246110E-003	2.000000000000000E+000	-9.5418263E-006	2.2394890E-006
2	0	0	0	1	4.120195895915094E+002	-3.1513563E-001	-3.1539702E-001	-7.102649689962454E-003	2.000000000000000E+000	-9.5906134E-006	2.2401546E-006
2	0	0	1	1	4.120261895913427E+002	-3.1843442E-001	-3.1869239E-001	-7.032644024851209E-003	2.000000000000000E+000	-9.6374715E-006	2.2412501E-006
2	0	0	0	1	4.120327895911760E+002	-3.2173315E-001	-3.2197663E-001	-6.956938473861862E-003	2.000000000000000E+000	-9.6838576E-006	2.2399715E-006
2	0	0	0	1	4.120395895910042E+002	-3.2513183E-001	-3.2534793E-001	-6.884631426631399E-003	2.000000000000000E+000	-9.7311613E-006	2.2399006E-006
2	0	0	1	1	4.120461895908375E+002	-3.2843059E-001	-3.2867214E-001	-6.838740441283631E-003	2.000000000000000E+000	-9.7766642E-006	2.2477034E-006
2	0	0	0	1	4.120527895906707E+002	-3.3172932E-001	-3.3197466E-001	-6.785658828691005E-003	2.000000000000000E+000	-9.8218361E-006	2.2526667E-006
2	0	0	0	1	4.120595895904989E+002	-3.3512804E-001	-3.3535850E-001	-6.709781262179609E-003	2.000000000000000E+000	-9.8679484E-006	2.2501822E-006
2	0	0	1	1	4.120661895903322E+002	-3.3842677E-001	-3.3866489E-001	-6.672545041510602E-003	2.000000000000000E+000	-9.9123299E-006	2.2597567E-006
2	0	0	0	1	4.120727895901655E+002	-3.4172553E-001	-3.4201461E-001	-6.627723354783163E-003	2.000000000000000E+000	-9.9564613E-006	2.2667782E-006
2	0	0	0	1	4.120795895899937E+002	-3.4512419E-001	-3.4539166E-001	-6.571992791214136E-003	2.000000000000000E+000	-1.0001578E-005	2.2699114E-006
2	0	0	1	1	4.120861895898270E+002	-3.4842297E-001	-3.4868249E-001	-6.530420621371991E-003	2.000000000000000E+000	-1.0045034E-005	2.2770434E-006
2	0	0	0	1	4.120927895896602E+002	-3.5172170E-001	-3.5200191E-001	-6.497647615105938E-003	2.000000000000000E+000	-1.0088255E-005	2.2871843E-006
2	0	0	0	1	4.120995895894885E+002	-3.5512042E-001	-3.5539803E-001	-6.453235709462511E-003	2.000000000000000E+000	-1.0132532E-005	2.2934673E-006
2	0	0	1	1	4.121061895893217E+002	-3.5841912E-001	-3.5869887E-001	-6.428414589148210E-003	2.000000000000000E+000	-1.0175266E-005	2.3058651E-006
2	0	0	0	1	4.121127895891550E+002	-3.6174011E-001	-3.6200708E-001	-6.391234908854432E-003	2.000000000000000E+000	-1.0217794E-005	2.3136722E-006
2	0	0	1	1	4.121193895889883E+002	-3.6504996E-001	-3.6530745E-001	-6.377885371936495E-003	2.000000000000000E+000	-1.0260155E-005	2.3298890E-006
2	0	0	1	1	4.121261895888165E+002	-3.6844867E-001	-3.6870447E-001	-6.336700483249524E-003	2.000000000000000E+000	-1.0303615E-005	2.3363698E-006
2	0	0	0	1	4.121327895886498E+002	-3.7174743E-001	-3.7200847E-001	-6.325004202335550E-003	2.000000000000000E+000	-1.0345623E-005	2.3529551E-006
2	0	0	1	1	4.121393895884830E+002	-3.7504616E-001	-3.7529698E-001	-6.306737018773365E-003	2.000000000000000E+000	-1.0387548E-005	2.3668993E-006
2	0	0	1	1	4.121461895883112E+002	-3.7844485E-001	-3.7868977E-001	-6.275365104678082E-003	2.000000000000000E+000	-1.0430567E-005	2.3764164E-006
2	0	0	0	1	4.121527895881445E+002	-3.8174361E-001	-3.8202479E-001	-6.270613023480098E-003	2.000000000000000E+000	-1.0472198E-005	2.3955297E-006
2	0	0	1	1	4.121593895879778E+002	-3.8504234E-001	-3.8532668E-001	-6.255914547303579E-003	2.000000000000000E+000	-1.0513770E-005	2.4105709E-006
2	0	0	1	1	4.121661895878060E+002	-3.8844103E-001	-3.8872072E-001	-6.236682954113323E-003	2.000000000000000E+000	-1.0556480E-005	2.4243279E-006
2	0	0	0	1	4.121727895876393E+002	-3.9173979E-001	-3.9202210E-001	-6.233974686559410E-003	2.000000000000000E+000	-1.0597846E-005	2.4438559E-006
2	0	0	1	1	4.121793895874725E+002	-3.9503852E-001	-3.9531985E-001	-6.208658477892925E-003	2.000000000000000E+000	-1.0639134E-005	2.4544058E-006
2	0	0	1	1	4.121861895873008E+002	-3.9843720E-001	-3.9872172E-001	-6.202538730819163E-003	2.000000000000000E+000	-1.0681570E-005	2.4730869E-006
2	0	0	0	1	4.121927895871340E+002	-4.0173599E-001	-4.0202245E-001	-6.206008786224015E-003	2.000000000000000E+000	-1.0722733E-005	2.4949550E-006
2	0	0	1	1	4.121993895869673E+002	-4.0503475E-001	-4.0530542E-001	-6.187534560316024E-003	2.000000000000000E+000	-1.0763857E-005	2.5078414E-006
2	0	0	1	1	4.122061895867955E+002	-4.0843344E-001	-4.0870896E-001	-6.190078470899599E-003	2.000000000000000E+000	-1.0806184E-005	2.5299405E-006
2	0	0	0	1	4.122127895866288E+002	-4.1173220E-001	-4.1199613E-001	-6.194975223237025E-003	2.000000000000000E+000	-1.0847274E-005	2.5523059E-006
2	0	0	1	1	4.122193895864621E+002	-4.1503093E-001	-4.1530722E-001	-6.196291874099785E-003	2.000000000000000E+000	-1.0888396E-005	2.5733648E-006
2	0	0	1	1	4.122261895862903E+002	-4.1842961E-001	-4.1870096E-001	-6.185267591960523E-003	2.000000000000000E+000	-1.0930719E-005	2.5897775E-006
2	0	0	0	1	4.122327895861235E+002	-4.2172837E-001	-4.2200777E-001	-6.185700682302321E-003	2.000000000000000E+000	-1.0971769E-005	2.6104137E-006
2	0	0	1	1	4.122393895859568E+002	-4.2502713E-001	-4.2529795E-001	-6.186077307999450E-003	2.000000000000000E+000	-1.1012825E-005	2.6309260E-006
2	0	0	1	1	4.122461895857850E+002	-4.2842579E-001	-4.2869258E-001	-6.189353968329675E-003	2.000000000000000E+000	-1.1055141E-005	2.6533301E-006
2	0	0	0	1	4.122527895856183E+002	-4.3172455E-001	-4.3196967E-001	-6.196567615491727E-003	2.000000000000000E+000	-1.1096236E-005	2.6767293E-006
2	0	0	1	1	4.122593895854516E+002	-4.3502325E-001	-4.3528467E-001	-6.197529653218237E-003	2.000000000000000E+000	-1.1137378E-005	2.6976898E-006
2	0	0	1	1	4.122661895852798E+002	-4.3842199E-001	-4.3867728E-001	-6.208731106441198E-003	2.000000000000000E+000	-1.1179808E-005	2.7236292E-006
2	0	0	0	1	4.122727895851131E+002	-4.4172072E-001	-4.4197571E-001	-6.210444413348636E-003	2.000000000000000E+000	-1.1221013E-005	2.7448657E-006
2	0	0	1	1	4.122793895849463E+002	-4.4501945E-001	-4.4527060E-001	-6.217864825945671E-003	2.000000000000000E+000	-1.1262273E-005	2.7686324E-006
2	0	0	1	1	4.122860895847771E+002	-4.4838482E-001	-4.4862789E-001	-6.231278099597871E-003	2.000000000000000E+000	-1.1304212E-005	2.7955252E-006
2	0	0	0	1	4.122927895846078E+002	-4.5175022E-001	-4.5199370E-001	-6.230773631796194E-003	2.000000000000000E+000	-1.1346223E-005	2.8162704E-006
2	0	0	1	1	4.122993895844411E+002	-4.5504898E-001	-4.5528841E-001	-6.251752523106321E-003	2.000000000000000E+000	-1.1387629E-005	2.8463505E-006
2	0	0	0	1	4.123059895842744E+002	-4.5834771E-001	-4.5861772E-001	-6.255549808277753E-003	2.000000000000000E+000	-1.1429137E-005	2.8689060E-006
2	0	0	0	1	4.123127895841026E+002	-4.6174645E-001	-4.6199897E-001	-6.273803023820301E-003	2.000000000000000E+000	-1.1471985E-005	2.8984905E-006
2	0	0	1	1	4.123193895839358E+002	-4.6504515E-001	-4.6528998E-001	-6.286157897739036E-003	2.000000000000000E+000	-1.1513650E-005	2.9248863E-006
2	0	0	0	1	4.123259895837691E+002	-4.6834391E-001	-4.6860981E-001	-6.300861143972727E-003	2.000000000000000E+000	-1.1555413E-005	2.9526454E-006
2	0	0	0	1	4.123327895835973E+002	-4.7174263E-001	-4.7200689E-001	-6.310488075905590E-003	2.000000000000000E+000	-1.1598542E-005	2.9785938E-006
2	0	0	1	1	4.123393895834306E+002	-4.7504133E-001	-4.7529149E-001	-6.328372147557562E-003	2.000000000000000E+000	-1.1640472E-005	3.0078215E-006
2	0	0	0	1	4.123459895832639E+002	-4.7834012E-001	-4.7858948E-001	-6.347865041304107E-003	2.000000000000000E+000	-1.1682544E-005	3.0380213E-006
2	0	0	0	1	4.123527895830921E+002	-4.8173881E-001	-4.8200646E-001	-6.363792989516975E-003	2.000000000000000E+000	-1.1726018E-005	3.0673893E-006
2	0	0	1	1	4.123593895829254E+002	-4.8503754E-001	-4.8529428E-001	-6.378462664360998E-003	2.000000000000000E+000	-1.1768292E-005	3.0954316E-006
2	0	0	0	1	4.123659895827586E+002	-4.8833629E-001	-4.8858508E-001	-6.389688710017557E-003	2.000000000000000E+000	-1.1810666E-005	3.1219065E-006
2	0	0	0	1	4.123727895825868E+002	-4.9173504E-001	-4.9197596E-001	-6.417244740562898E-003	2.000000000000000E+000	-1.1854456E-005	3.1571301E-006
2	0	0	1	1	4.123793895824201E+002	-4.9503377E-001	-4.9527901E-001	-6.438486569580459E-003	2.000000000000000E+000	-1.1897108E-005	3.1888474E-006
2	0	0	0	1	4.123859895822534E+002	-4.9833250E-001	-4.9858251E-001	-6.466895644795523E-003	2.000000000000000E+000	-1.1939940E-005	3.2242810E-006
2	0	0	0	1	4.123927895820816E+002	-5.0173116E-001	-5.0199777E-001	-6.485669539930919E-003	2.000000000000000E+000	-1.1984228E-005	3.2557916E-006
2	0	0	1	1	4.123993895819149E+002	-5.0502992E-001	-5.0529033E-001	-6.519561052967512E-003	2.000000000000000E+000	-1.2027372E-005	3.2942712E-006
2	0	0	0	1	4.124059895817481E+002	-5.0832874E-001	-5.0858641E-001	-6.538189850349825E-003	2.000000000000000E+000	-1.2070696E-005	3.3252345E-006
2	0	0	0	1	4.124127895815764E+002	-5.1172739E-001	-5.1199561E-001	-6.566443449264620E-003	2.000000000000000E+000	-1.2115505E-005	3.3619901E-006
2	0	0	1	1	4.124193895814096E+002	-5.1502615E-001	-5.1527894E-001	-6.590020714550809E-003	2.000000000000000E+000	-1.2159137E-005	3.3956990E-006
2	0	0	0	1	4.124259895812429E+002	-5.1832485E-001	-5.1857281E-001	-6.619699600438872E-003	2.000000000000000E+000	-1.2202970E-005	3.4327961E-006
2	0	0	0	1	4.124327895810711E+002	-5.2172357E-001	-5.2196980E-001	-6.654020734155566E-003	2.000000000000000E+000	-1.2248356E-005	3.4731979E-006
2	0	0	1	1	4.124393895809044E+002	-5.2502233E-001	-5.2528828E-001	-6.687023731259002E-003	2.000000000000000E+000	-1.2292607E-005	3.5126152E-006
2	0	0	0	1	4.124459895807377E+002	-5.2832103E-001	-5.2857840E-001	-6.714274452557803E-003	2.000000000000000E+000	-1.2337068E-005	3.5490204E-006
2	0	0	0	1	4.124527895805659E+002	-5.3171974E-001	-5.3198183E-001	-6.762559273677943E-003	2.000000000000000E+000	-1.2383131E-005	3.5975586E-006
2	0	0	1	1	4.124593895803991E+002	-5.3502959E-001	-5.3528392E-001	-6.792643666267389E-003	2.000000000000000E+000	-1.2428089E-005	3.6359929E-006
2	0	0	0	1	4.124659895802324E+002	-5.3835058E-001	-5.3858972E-001	-6.830492392206580E-003	2.000000000000000E+000	-1.2473295E-005	3.6788329E-006
2	0	0	1	1	4.124725895800657E+002	-5.4164928E-001	-5.4189044E-001	-6.878581119478117E-003	2.000000000000000E+000	-1.2518774E-005	3.7274374E-006
2	0	0	1	1	4.124793895798939E+002	-5.4504800E-001	-5.4529124E-001	-6.921026133447084E-003	2.000000000000000E+000	-1.2565956E-005	3.7739749E-006
2	0	0	0	1	4.124859895797272E+002	-5.4834670E-001	-5.4859883E-001	-6.965105078537204E-003	2.000000000000000E+000	-1.2612015E-005	3.8210483E-006
2	0	0	1	1	4.124925895795604E+002	-5.5164552E-001	-5.5190527E-001	-7.006950678260177E-003	2.000000000000000E+000	-1.2658363E-005	3.8671728E-006
2	0	0	1	1	4.124993895793887E+002	-5.5504411E-001	-5.5531937E-001	-7.058390592889444E-003	2.000000000000000E+000	-1.2706447E-005	3.9196611E-006
2	0	0	0	1	4.125059895792219E+002	-5.5834293E-001	-5.5862063E-001	-7.109484449271536E-003	2.000000000000000E+000	-1.2753421E-005	3.9715046E-006
2	0	0	1	1	4.125125895790552E+002	-5.6164163E-001	-5.6190753E-001	-7.164525979290681E-003	2.000000000000000E+000	-1.2800760E-005	4.0258010E-006
2	0	0	1	1	4.125193895788834E+002	-5.6504035E-001	-5.6531519E-001	-7.216698142898770E-003	2.000000000000000E+000	-1.2849896E-005	4.0797090E-006
2	0	0	0	1	4.125259895787167E+002	-5.6833911E-001	-5.6861651E-001	-7.267745917488300E-003	2.000000000000000E+000	-1.2897915E-005	4.1325602E-006
2	0	0	1	1	4.125325895785500E+002	-5.7163781E-001	-5.7189780E-001	-7.328290441607040E-003	2.000000000000000E+000	-1.2946331E-005	4.1910334E-006
2	0	0	1	1	4.125393895783782E+002	-5.7503659E-001	-5.7531041E-001	-7.397426662525193E-003	2.000000000000000E+000	-1.2996660E-005	4.2558167E-006
2	0	0	0	1	4.125459895782114E+002	-5.7833529E-001	-5.7860380E-001	-7.470171491149827E-003	2.000000000000000E+000	-1.3045955E-005	4.3222694E-006
2	0	0	1	1	4.125525895780447E+002	-5.8163404E-001	-5.8189660E-001	-7.523950433339130E-003	2.000000000000000E+000	-1.3095671E-005	4.3781611E-006
2	0	0	1	1	4.125593895778729E+002	-5.8503270E-001	-5.8530480E-001	-7.602086591820517E-003	2.000000000000000E+000	-1.3147349E-005	4.4495378E-006
2	0	0	0	1	4.125659895777062E+002	-5.8833146E-001	-5.8860391E-001	-7.682641230348952E-003	2.000000000000000E+000	-1.3198016E-005	4.5220327E-006
2	0	0	1	1	4.125725895775395E+002	-5.9163022E-001	-5.9188956E-001	-7.749291943764544E-003	2.000000000000000E+000	-1.3249200E-005	4.5867250E-006
2	0	0	1	1	4.125793895773677E+002	-5.9502894E-001	-5.9530079E-001	-7.834896326554958E-003	2.000000000000000E+000	-1.3302430E-005	4.6641198E-006
2	0	0	0	1	4.125856895772085E+002	-5.9817958E-001	-5.9843534E-001	-7.905036219098167E-003	2.000000000000000E+000	-1.3352217E-005	4.7306530E-006
2	0	0	0	1	4.125889895771252E+002	-5.9982693E-001	-6.0005033E-001	-7.929191924631596E-003	2.000000000000000E+000	-1.3378429E-005	4.7579142E-006