EC-Lab ASCII FILE
Nb header lines : 53                          

Cyclic Voltammetry

Run on channel : 1 (SN 0696)
User : 
Electrode connection : standard
Ewe ctrl range : min = -10.00 V, max = 10.00 V
Ewe,I filtering : 50 kHz
Channel : Grounded
Acquisition started on : 05/17/2017 12:14:48
Saved on :
	File : 100 uM MB 10mM PB Second ITO_04_CV_C01.mpr
	Directory : \\userfs\st659\w2k\EC-Lab\Data\ITO Characterisation 17-5-17\
	Host : 144.32.136.43
Device : SP-300 (SN 0182)
Address : USB
EC-Lab for windows v10.44 (software)
Internet server v10.44 (firmware)
Command interpretor v10.44 (firmware)
Electrode material : 
Initial state : 
Electrolyte : 
Comments : 
Cable : standard
Electrode surface area : 0.001 cm²
Characteristic mass : 0.001 g
Equivalent Weight : 0.000 g/eq.
Density : 0.000 g/cm3
Ei (V)              0.000               
vs.                 Eoc                 
dE/dt               250.000             
dE/dt unit          mV/s                
E1 (V)              0.100               
vs.                 Ref                 
Step percent        50                  
N                   10                  
E range min (V)     -10.000             
E range max (V)     10.000              
I Range             Auto                
I Range min         Unset               
I Range max         Unset               
I Range init        Unset               
Bandwidth           8                   
E2 (V)              -0.600              
vs.                 Ref                 
nc cycles           2                   
Reverse Scan        1                   
Ef (V)              0.000               
vs.                 Eoc                 

mode	ox/red	error	control changes	counter inc.	time/s	control/V	Ewe/V	<I>/mA	cycle number	(Q-Qo)/C	P/W
2	1	0	1	1	3.923385900886933E+002	-6.0016018E-001	-6.0040134E-001	-7.132391445338726E-003	2.000000000000000E+000	-1.2786857E-005	4.2822976E-006
2	1	0	1	1	3.923457900885114E+002	-5.9834433E-001	-5.9856158E-001	-6.260342651613515E-003	2.000000000000000E+000	-1.2832170E-005	3.7472007E-006
2	1	0	0	1	3.923591900881729E+002	-5.9499562E-001	-5.9521633E-001	-5.826011379374683E-003	2.000000000000000E+000	-1.2912146E-005	3.4677371E-006
2	1	0	1	1	3.923725900878344E+002	-5.9164691E-001	-5.9187222E-001	-5.576451737174973E-003	2.000000000000000E+000	-1.2987773E-005	3.3005470E-006
2	1	0	1	1	3.923857900875009E+002	-5.8834821E-001	-5.8856106E-001	-5.388781108053478E-003	2.000000000000000E+000	-1.3059388E-005	3.1716268E-006
2	1	0	0	1	3.923991900871624E+002	-5.8499944E-001	-5.8524007E-001	-5.217139244127290E-003	2.000000000000000E+000	-1.3129666E-005	3.0532790E-006
2	1	0	1	1	3.924125900868239E+002	-5.8165067E-001	-5.8184648E-001	-5.062473388534258E-003	2.000000000000000E+000	-1.3197758E-005	2.9455823E-006
2	1	0	1	1	3.924257900864905E+002	-5.7833529E-001	-5.7857209E-001	-4.922370521287835E-003	2.000000000000000E+000	-1.3262918E-005	2.8479462E-006
2	1	0	0	1	3.924391900861519E+002	-5.7498658E-001	-5.7521439E-001	-4.796399374148080E-003	2.000000000000000E+000	-1.3327278E-005	2.7589579E-006
2	1	0	0	1	3.924523900858185E+002	-5.7168782E-001	-5.7191253E-001	-4.680297271907968E-003	2.000000000000000E+000	-1.3389073E-005	2.6767207E-006
2	1	0	1	1	3.924657900854800E+002	-5.6833917E-001	-5.6856453E-001	-4.567437667881466E-003	2.000000000000000E+000	-1.3450238E-005	2.5968832E-006
2	1	0	0	1	3.924791900851415E+002	-5.6499040E-001	-5.6521326E-001	-4.459498058733725E-003	2.000000000000000E+000	-1.3509959E-005	2.5205675E-006
2	1	0	0	1	3.924923900848080E+002	-5.6169170E-001	-5.6189209E-001	-4.360076509712779E-003	2.000000000000000E+000	-1.3567410E-005	2.4498925E-006
2	1	0	1	1	3.925057900844695E+002	-5.5834293E-001	-5.5856711E-001	-4.268185727091296E-003	2.000000000000000E+000	-1.3624466E-005	2.3840682E-006
2	1	0	0	1	3.925191900841310E+002	-5.5499417E-001	-5.5522770E-001	-4.180241711967236E-003	2.000000000000000E+000	-1.3680309E-005	2.3209859E-006
2	1	0	0	1	3.925323900837975E+002	-5.5169547E-001	-5.5191594E-001	-4.092032462115938E-003	2.000000000000000E+000	-1.3734156E-005	2.2584579E-006
2	1	0	1	1	3.925457900834590E+002	-5.4834676E-001	-5.4855007E-001	-4.012666742386921E-003	2.000000000000000E+000	-1.3787695E-005	2.2011486E-006
2	1	0	0	1	3.925591900831205E+002	-5.4499805E-001	-5.4521412E-001	-3.935717599738889E-003	2.000000000000000E+000	-1.3840202E-005	2.1458088E-006
2	1	0	0	1	3.925723900827870E+002	-5.4169929E-001	-5.4190797E-001	-3.859797723129701E-003	2.000000000000000E+000	-1.3890909E-005	2.0916552E-006
2	1	0	1	1	3.925857900824485E+002	-5.3835058E-001	-5.3855187E-001	-3.789708722615619E-003	2.000000000000000E+000	-1.3941420E-005	2.0409548E-006
2	1	0	0	1	3.925990900821125E+002	-5.3501284E-001	-5.3520930E-001	-3.722586056120858E-003	2.000000000000000E+000	-1.3990644E-005	1.9923627E-006
2	1	0	0	1	3.926123900817765E+002	-5.3168643E-001	-5.3188312E-001	-3.657879362961261E-003	2.000000000000000E+000	-1.4038966E-005	1.9455642E-006
2	1	0	1	1	3.926257900814380E+002	-5.2833772E-001	-5.2854186E-001	-3.590325231319490E-003	2.000000000000000E+000	-1.4086794E-005	1.8976372E-006
2	1	0	1	1	3.926389900811046E+002	-5.2503896E-001	-5.2525419E-001	-3.535971452240320E-003	2.000000000000000E+000	-1.4133103E-005	1.8572838E-006
2	1	0	0	1	3.926523900807661E+002	-5.2169031E-001	-5.2189803E-001	-3.472846893843459E-003	2.000000000000000E+000	-1.4179298E-005	1.8124720E-006
2	1	0	1	1	3.926657900804275E+002	-5.1834154E-001	-5.1853210E-001	-3.412134549378408E-003	2.000000000000000E+000	-1.4224694E-005	1.7693013E-006
2	1	0	1	1	3.926789900800941E+002	-5.1504278E-001	-5.1526994E-001	-3.364980525859408E-003	2.000000000000000E+000	-1.4268675E-005	1.7338733E-006
2	1	0	0	1	3.926923900797556E+002	-5.1169407E-001	-5.1191157E-001	-3.307932727814961E-003	2.000000000000000E+000	-1.4312628E-005	1.6933691E-006
2	1	0	1	1	3.927057900794171E+002	-5.0834531E-001	-5.0856370E-001	-3.252783536966782E-003	2.000000000000000E+000	-1.4355859E-005	1.6542476E-006
2	1	0	1	1	3.927189900790836E+002	-5.0504661E-001	-5.0525302E-001	-3.204861564194680E-003	2.000000000000000E+000	-1.4397761E-005	1.6192660E-006
2	1	0	0	1	3.927323900787451E+002	-5.0169790E-001	-5.0191277E-001	-3.153760319835580E-003	2.000000000000000E+000	-1.4439620E-005	1.5829125E-006
2	1	0	1	1	3.927457900784066E+002	-4.9834916E-001	-4.9856758E-001	-3.105599427362903E-003	2.000000000000000E+000	-1.4480823E-005	1.5483512E-006
2	1	0	1	1	3.927589900780731E+002	-4.9505040E-001	-4.9524555E-001	-3.059299112181987E-003	2.000000000000000E+000	-1.4520779E-005	1.5151043E-006
2	1	0	0	1	3.927723900777346E+002	-4.9169058E-001	-4.9189663E-001	-3.012338980736079E-003	2.000000000000000E+000	-1.4560719E-005	1.4817593E-006
2	1	0	0	1	3.927855900774011E+002	-4.8838627E-001	-4.8861644E-001	-2.973944223999235E-003	2.000000000000000E+000	-1.4599484E-005	1.4531180E-006
2	1	0	1	1	3.927989900770626E+002	-4.8503754E-001	-4.8523897E-001	-2.925693411695338E-003	2.000000000000000E+000	-1.4638250E-005	1.4196604E-006
2	1	0	0	1	3.928123900767241E+002	-4.8168883E-001	-4.8191535E-001	-2.882783808480671E-003	2.000000000000000E+000	-1.4676441E-005	1.3892578E-006
2	1	0	0	1	3.928255900763907E+002	-4.7839004E-001	-4.7860026E-001	-2.839227488726059E-003	2.000000000000000E+000	-1.4713486E-005	1.3588550E-006
2	1	0	1	1	3.928389900760521E+002	-4.7504133E-001	-4.7524679E-001	-2.798989741343877E-003	2.000000000000000E+000	-1.4750532E-005	1.3302109E-006
2	1	0	0	1	3.928523900757136E+002	-4.7169265E-001	-4.7190762E-001	-2.760557681196783E-003	2.000000000000000E+000	-1.4787071E-005	1.3027282E-006
2	1	0	0	1	3.928655900753802E+002	-4.6839386E-001	-4.6861422E-001	-2.721416440534884E-003	2.000000000000000E+000	-1.4822522E-005	1.2752945E-006
2	1	0	1	1	3.928789900750417E+002	-4.6504515E-001	-4.6523675E-001	-2.679952334094397E-003	2.000000000000000E+000	-1.4857960E-005	1.2468123E-006
2	1	0	0	1	3.928923900747031E+002	-4.6169645E-001	-4.6189454E-001	-2.644368122481755E-003	2.000000000000000E+000	-1.4892908E-005	1.2214192E-006
2	1	0	0	1	3.929055900743697E+002	-4.5839766E-001	-4.5857802E-001	-2.608902114176706E-003	2.000000000000000E+000	-1.4926845E-005	1.1963851E-006
2	1	0	1	1	3.929189900740312E+002	-4.5504895E-001	-4.5521942E-001	-2.569437335407404E-003	2.000000000000000E+000	-1.4960781E-005	1.1696578E-006
2	1	0	0	1	3.929323900736927E+002	-4.5170024E-001	-4.5187017E-001	-2.536999127338888E-003	2.000000000000000E+000	-1.4994262E-005	1.1463942E-006
2	1	0	0	1	3.929455900733592E+002	-4.4839039E-001	-4.4857457E-001	-2.495864199136123E-003	2.000000000000000E+000	-1.5026748E-005	1.1195813E-006
2	1	0	1	1	3.929589900730207E+002	-4.4503614E-001	-4.4524008E-001	-2.465873192613786E-003	2.000000000000000E+000	-1.5059253E-005	1.0979056E-006
2	1	0	1	1	3.929721900726872E+002	-4.4173738E-001	-4.4193402E-001	-2.430109829159241E-003	2.000000000000000E+000	-1.5090839E-005	1.0739482E-006
2	1	0	0	1	3.929855900723487E+002	-4.3838871E-001	-4.3860015E-001	-2.395975563114106E-003	2.000000000000000E+000	-1.5122428E-005	1.0508752E-006
2	1	0	1	1	3.929989900720102E+002	-4.3503997E-001	-4.3525848E-001	-2.362177202343850E-003	2.000000000000000E+000	-1.5153571E-005	1.0281576E-006
2	1	0	1	1	3.930121900716767E+002	-4.3174124E-001	-4.3194136E-001	-2.327610971860850E-003	2.000000000000000E+000	-1.5183796E-005	1.0053915E-006
2	1	0	0	1	3.930255900713382E+002	-4.2839247E-001	-4.2859593E-001	-2.298757852410443E-003	2.000000000000000E+000	-1.5214048E-005	9.8523822E-007
2	1	0	1	1	3.930389900709997E+002	-4.2504373E-001	-4.2525834E-001	-2.266637228189615E-003	2.000000000000000E+000	-1.5243899E-005	9.6390636E-007
2	1	0	1	1	3.930521900706663E+002	-4.2174500E-001	-4.2197919E-001	-2.231266337912523E-003	2.000000000000000E+000	-1.5272855E-005	9.4154797E-007
2	1	0	0	1	3.930655900703277E+002	-4.1839629E-001	-4.1861683E-001	-2.202066178172868E-003	2.000000000000000E+000	-1.5301808E-005	9.2182199E-007
2	1	0	1	1	3.930789900699892E+002	-4.1504756E-001	-4.1527078E-001	-2.166231853708369E-003	2.000000000000000E+000	-1.5330355E-005	8.9957280E-007
2	1	0	1	1	3.930921900696558E+002	-4.1174880E-001	-4.1196206E-001	-2.137413531242294E-003	2.000000000000000E+000	-1.5358028E-005	8.8053326E-007
2	1	0	0	1	3.931055900693173E+002	-4.0840012E-001	-4.0860376E-001	-2.107508965289323E-003	2.000000000000000E+000	-1.5385716E-005	8.6113607E-007
2	1	0	1	1	3.931188900689813E+002	-4.0506801E-001	-4.0527672E-001	-2.073903090393612E-003	2.000000000000000E+000	-1.5412805E-005	8.4050464E-007
2	1	0	1	1	3.931321900686453E+002	-4.0173596E-001	-4.0195844E-001	-2.046838825147758E-003	2.000000000000000E+000	-1.5439477E-005	8.2274414E-007
2	1	0	0	1	3.931455900683068E+002	-3.9838722E-001	-3.9862269E-001	-2.018647224829490E-003	2.000000000000000E+000	-1.5465976E-005	8.0467856E-007
2	1	0	0	1	3.931587900679733E+002	-3.9508852E-001	-3.9531100E-001	-1.985342881663306E-003	2.000000000000000E+000	-1.5491667E-005	7.8482788E-007
2	1	0	1	1	3.931721900676348E+002	-3.9173979E-001	-3.9195958E-001	-1.952848143092623E-003	2.000000000000000E+000	-1.5517337E-005	7.6543751E-007
2	1	0	0	1	3.931855900672963E+002	-3.8839108E-001	-3.8861170E-001	-1.927999504641779E-003	2.000000000000000E+000	-1.5542621E-005	7.4924316E-007
2	1	0	0	1	3.931987900669628E+002	-3.8509229E-001	-3.8533056E-001	-1.898639538436928E-003	2.000000000000000E+000	-1.5567144E-005	7.3160385E-007
2	1	0	1	1	3.932121900666243E+002	-3.8174355E-001	-3.8195479E-001	-1.865670612611815E-003	2.000000000000000E+000	-1.5591611E-005	7.1260183E-007
2	1	0	0	1	3.932255900662858E+002	-3.7839487E-001	-3.7858623E-001	-1.839560781021033E-003	2.000000000000000E+000	-1.5615700E-005	6.9643238E-007
2	1	0	0	1	3.932387900659523E+002	-3.7509608E-001	-3.7530145E-001	-1.810356649285597E-003	2.000000000000000E+000	-1.5639063E-005	6.7942949E-007
2	1	0	1	1	3.932521900656138E+002	-3.7174737E-001	-3.7193802E-001	-1.780837957863289E-003	2.000000000000000E+000	-1.5662377E-005	6.6236134E-007
2	1	0	0	1	3.932655900652753E+002	-3.6839864E-001	-3.6858040E-001	-1.751833554691169E-003	2.000000000000000E+000	-1.5685320E-005	6.4569150E-007
2	1	0	0	1	3.932787900649419E+002	-3.6509994E-001	-3.6529776E-001	-1.726988781855548E-003	2.000000000000000E+000	-1.5707559E-005	6.3086515E-007
2	1	0	1	1	3.932921900646033E+002	-3.6174566E-001	-3.6193284E-001	-1.695552161254455E-003	2.000000000000000E+000	-1.5729749E-005	6.1367604E-007
2	1	0	1	1	3.933053900642699E+002	-3.5843581E-001	-3.5865161E-001	-1.669346818137758E-003	2.000000000000000E+000	-1.5751239E-005	5.9871394E-007
2	1	0	0	1	3.933187900639314E+002	-3.5508710E-001	-3.5528418E-001	-1.640507354073230E-003	2.000000000000000E+000	-1.5772674E-005	5.8284633E-007
2	1	0	1	1	3.933321900635929E+002	-3.5173836E-001	-3.5194683E-001	-1.613531582734135E-003	2.000000000000000E+000	-1.5793750E-005	5.6787735E-007
2	1	0	1	1	3.933453900632594E+002	-3.4843963E-001	-3.4864882E-001	-1.584954971950634E-003	2.000000000000000E+000	-1.5814107E-005	5.5259267E-007
2	1	0	0	1	3.933587900629209E+002	-3.4509090E-001	-3.4529513E-001	-1.556933246259478E-003	2.000000000000000E+000	-1.5834412E-005	5.3760147E-007
2	1	0	1	1	3.933721900625824E+002	-3.4174216E-001	-3.4196207E-001	-1.527462369383807E-003	2.000000000000000E+000	-1.5854355E-005	5.2233418E-007
2	1	0	1	1	3.933853900622489E+002	-3.3844343E-001	-3.3861545E-001	-1.495258505100431E-003	2.000000000000000E+000	-1.5873573E-005	5.0631763E-007
2	1	0	0	1	3.933987900619104E+002	-3.3509469E-001	-3.3526924E-001	-1.469662914066954E-003	2.000000000000000E+000	-1.5892685E-005	4.9273280E-007
2	1	0	1	1	3.934121900615719E+002	-3.3174598E-001	-3.3192331E-001	-1.439494727522597E-003	2.000000000000000E+000	-1.5911453E-005	4.7780185E-007
2	1	0	1	1	3.934253900612384E+002	-3.2844722E-001	-3.2860762E-001	-1.410889206196468E-003	2.000000000000000E+000	-1.5929540E-005	4.6362894E-007
2	1	0	0	1	3.934387900608999E+002	-3.2509851E-001	-3.2525751E-001	-1.382497321846032E-003	2.000000000000000E+000	-1.5947524E-005	4.4966762E-007
2	1	0	1	1	3.934521900605614E+002	-3.2174978E-001	-3.2191256E-001	-1.352552087498931E-003	2.000000000000000E+000	-1.5965128E-005	4.3540351E-007
2	1	0	1	1	3.934653900602279E+002	-3.1845105E-001	-3.1862786E-001	-1.325502676349465E-003	2.000000000000000E+000	-1.5982085E-005	4.2234208E-007
2	1	0	0	1	3.934787900598894E+002	-3.1508565E-001	-3.1526199E-001	-1.292713614116613E-003	2.000000000000000E+000	-1.5998878E-005	4.0754347E-007
2	1	0	0	1	3.934919900595560E+002	-3.1178692E-001	-3.1196526E-001	-1.263577293750338E-003	2.000000000000000E+000	-1.6015019E-005	3.9419223E-007
2	1	0	1	1	3.935053900592175E+002	-3.0843818E-001	-3.0861387E-001	-1.231330010048423E-003	2.000000000000000E+000	-1.6030979E-005	3.8000550E-007
2	1	0	0	1	3.935187900588789E+002	-3.0508947E-001	-3.0527616E-001	-1.197695037055582E-003	2.000000000000000E+000	-1.6046519E-005	3.6562773E-007
2	1	0	0	1	3.935319900585455E+002	-3.0179074E-001	-3.0195457E-001	-1.167575383472770E-003	2.000000000000000E+000	-1.6061400E-005	3.5255471E-007
2	1	0	1	1	3.935453900582070E+002	-2.9844201E-001	-2.9862547E-001	-1.133940619416128E-003	2.000000000000000E+000	-1.6076072E-005	3.3862355E-007
2	1	0	0	1	3.935587900578685E+002	-2.9509330E-001	-2.9524028E-001	-1.094608190795852E-003	2.000000000000000E+000	-1.6090253E-005	3.2317243E-007
2	1	0	0	1	3.935719900575350E+002	-2.9179454E-001	-2.9195151E-001	-1.060724501212462E-003	2.000000000000000E+000	-1.6103762E-005	3.0968010E-007
2	1	0	1	1	3.935853900571965E+002	-2.8844583E-001	-2.8858253E-001	-1.025444971001988E-003	2.000000000000000E+000	-1.6116994E-005	2.9592550E-007
2	1	0	0	1	3.935987900568580E+002	-2.8509709E-001	-2.8522739E-001	-9.831164353828253E-004	2.000000000000000E+000	-1.6129728E-005	2.8041174E-007
2	1	0	0	1	3.936119900565245E+002	-2.8179836E-001	-2.8193557E-001	-9.482007815323507E-004	2.000000000000000E+000	-1.6141747E-005	2.6733153E-007
2	1	0	1	1	3.936253900561860E+002	-2.7844965E-001	-2.7858853E-001	-9.053432014499950E-004	2.000000000000000E+000	-1.6153417E-005	2.5221823E-007
2	1	0	0	1	3.936387900558475E+002	-2.7510092E-001	-2.7525884E-001	-8.641753420407534E-004	2.000000000000000E+000	-1.6164542E-005	2.3787190E-007
2	1	0	0	1	3.936519900555140E+002	-2.7178553E-001	-2.7194431E-001	-8.147355409164424E-004	2.000000000000000E+000	-1.6174892E-005	2.2156270E-007
2	1	0	1	1	3.936653900551755E+002	-2.6843679E-001	-2.6858509E-001	-7.677005813649038E-004	2.000000000000000E+000	-1.6184755E-005	2.0619292E-007
2	1	0	1	1	3.936785900548421E+002	-2.6513806E-001	-2.6530159E-001	-7.181203601248822E-004	2.000000000000000E+000	-1.6193822E-005	1.9051846E-007
2	1	0	0	1	3.936919900545035E+002	-2.6178932E-001	-2.6194406E-001	-6.627449878174553E-004	2.000000000000000E+000	-1.6202317E-005	1.7360210E-007
2	1	0	1	1	3.937053900541650E+002	-2.5844061E-001	-2.5860137E-001	-6.112753907725884E-004	2.000000000000000E+000	-1.6210121E-005	1.5807665E-007
2	1	0	1	1	3.937185900538316E+002	-2.5514182E-001	-2.5531760E-001	-5.485616392333090E-004	2.000000000000000E+000	-1.6217049E-005	1.4005744E-007
2	1	0	0	1	3.937319900534931E+002	-2.5179312E-001	-2.5196579E-001	-4.860899493830109E-004	2.000000000000000E+000	-1.6223241E-005	1.2247804E-007
2	1	0	1	1	3.937453900531546E+002	-2.4844442E-001	-2.4862948E-001	-4.179440555718526E-004	2.000000000000000E+000	-1.6228567E-005	1.0391322E-007
2	1	0	1	1	3.937585900528211E+002	-2.4514568E-001	-2.4532315E-001	-3.452058679727088E-004	2.000000000000000E+000	-1.6232882E-005	8.4686988E-008
2	1	0	0	1	3.937719900524826E+002	-2.4179693E-001	-2.4197330E-001	-2.659081418288330E-004	2.000000000000000E+000	-1.6236230E-005	6.4342672E-008
2	1	0	1	1	3.937853900521441E+002	-2.3844820E-001	-2.3863211E-001	-1.841279612158863E-004	2.000000000000000E+000	-1.6238519E-005	4.3938844E-008
2	1	0	1	1	3.937985900518106E+002	-2.3514946E-001	-2.3532504E-001	-9.856770846283758E-005	2.000000000000000E+000	-1.6239655E-005	2.3195449E-008
2	1	0	0	1	3.938119900514721E+002	-2.3180075E-001	-2.3197673E-001	-7.510469298230581E-006	2.000000000000000E+000	-1.6239617E-005	1.7422541E-009
2	1	0	1	1	3.938252900511361E+002	-2.2846304E-001	-2.2863561E-001	9.704804295910521E-005	2.000000000000000E+000	-1.6238282E-005	2.2188638E-008
2	1	0	1	1	3.938385900508001E+002	-2.2513661E-001	-2.2531733E-001	1.975550357428794E-004	2.000000000000000E+000	-1.6235557E-005	4.4512571E-008
2	1	0	0	1	3.938519900504616E+002	-2.2178791E-001	-2.2195971E-001	3.134294214558189E-004	2.000000000000000E+000	-1.6231374E-005	6.9568706E-008
2	1	0	0	1	3.938651900501281E+002	-2.1848918E-001	-2.1865655E-001	4.299351063840138E-004	2.000000000000000E+000	-1.6225715E-005	9.4008129E-008
2	1	0	1	1	3.938785900497896E+002	-2.1514046E-001	-2.1530624E-001	5.590911684445641E-004	2.000000000000000E+000	-1.6218337E-005	1.2037582E-007
2	1	0	0	1	3.938919900494511E+002	-2.1179172E-001	-2.1196108E-001	6.941509863332210E-004	2.000000000000000E+000	-1.6209209E-005	1.4713299E-007
2	1	0	0	1	3.939051900491177E+002	-2.0849298E-001	-2.0863868E-001	8.362308146994742E-004	2.000000000000000E+000	-1.6198357E-005	1.7447010E-007
2	1	0	1	1	3.939185900487792E+002	-2.0514426E-001	-2.0529854E-001	9.828129198821318E-004	2.000000000000000E+000	-1.6185422E-005	2.0177006E-007
2	1	0	0	1	3.939319900484406E+002	-2.0179552E-001	-2.0195358E-001	1.140831019989089E-003	2.000000000000000E+000	-1.6170452E-005	2.3039490E-007
2	1	0	0	1	3.939451900481072E+002	-1.9849679E-001	-1.9863707E-001	1.305784500896655E-003	2.000000000000000E+000	-1.6153555E-005	2.5937720E-007
2	1	0	1	1	3.939585900477687E+002	-1.9514807E-001	-1.9529890E-001	1.471283646560555E-003	2.000000000000000E+000	-1.6134183E-005	2.8734007E-007
2	1	0	0	1	3.939719900474302E+002	-1.9179934E-001	-1.9195163E-001	1.652732811089668E-003	2.000000000000000E+000	-1.6112517E-005	3.1724477E-007
2	1	0	0	1	3.939851900470967E+002	-1.8850060E-001	-1.8867505E-001	1.821986100559222E-003	2.000000000000000E+000	-1.6088852E-005	3.4376330E-007
2	1	0	1	1	3.939985900467582E+002	-1.8514077E-001	-1.8532576E-001	2.014434230053069E-003	2.000000000000000E+000	-1.6062373E-005	3.7332654E-007
2	1	0	1	1	3.940117900464247E+002	-1.8183646E-001	-1.8199094E-001	2.200967563163028E-003	2.000000000000000E+000	-1.6033806E-005	4.0055616E-007
2	1	0	0	1	3.940251900460862E+002	-1.7848775E-001	-1.7864749E-001	2.378896338177589E-003	2.000000000000000E+000	-1.6002365E-005	4.2498385E-007
2	1	0	1	1	3.940385900457477E+002	-1.7513902E-001	-1.7528613E-001	2.564968642208357E-003	2.000000000000000E+000	-1.5968462E-005	4.4960342E-007
2	1	0	1	1	3.940517900454142E+002	-1.7184030E-001	-1.7200173E-001	2.740854291914716E-003	2.000000000000000E+000	-1.5932694E-005	4.7143169E-007
2	1	0	0	1	3.940651900450757E+002	-1.6849157E-001	-1.6865364E-001	2.904213457370342E-003	2.000000000000000E+000	-1.5894091E-005	4.8980615E-007
2	1	0	1	1	3.940785900447372E+002	-1.6514283E-001	-1.6528198E-001	3.066131118167614E-003	2.000000000000000E+000	-1.5853342E-005	5.0677625E-007
2	1	0	1	1	3.940917900444038E+002	-1.6184409E-001	-1.6200173E-001	3.204099607925547E-003	2.000000000000000E+000	-1.5811214E-005	5.1906966E-007
2	1	0	0	1	3.941051900440652E+002	-1.5849537E-001	-1.5863653E-001	3.328373071478069E-003	2.000000000000000E+000	-1.5766693E-005	5.2800152E-007
2	1	0	1	1	3.941185900437267E+002	-1.5514663E-001	-1.5527773E-001	3.444829804498617E-003	2.000000000000000E+000	-1.5720552E-005	5.3490533E-007
2	1	0	1	1	3.941317900433933E+002	-1.5184790E-001	-1.5198816E-001	3.526593811430861E-003	2.000000000000000E+000	-1.5673824E-005	5.3600053E-007
2	1	0	0	1	3.941451900430548E+002	-1.4849916E-001	-1.4864898E-001	3.607482078384933E-003	2.000000000000000E+000	-1.5625283E-005	5.3624854E-007
2	1	0	1	1	3.941585900427162E+002	-1.4515045E-001	-1.4529827E-001	3.655975005110836E-003	2.000000000000000E+000	-1.5575870E-005	5.3120687E-007
2	1	0	1	1	3.941717900423828E+002	-1.4184061E-001	-1.4200908E-001	3.692198279188433E-003	2.000000000000000E+000	-1.5526659E-005	5.2432569E-007
2	1	0	0	1	3.941851900420443E+002	-1.3848633E-001	-1.3863286E-001	3.696948332294094E-003	2.000000000000000E+000	-1.5476464E-005	5.1251851E-007
2	1	0	0	1	3.941983900417108E+002	-1.3518758E-001	-1.3533145E-001	3.687669619567804E-003	2.000000000000000E+000	-1.5427022E-005	4.9905771E-007
2	1	0	1	1	3.942117900413723E+002	-1.3183887E-001	-1.3197340E-001	3.656811272250919E-003	2.000000000000000E+000	-1.5377080E-005	4.8260182E-007
2	1	0	0	1	3.942251900410338E+002	-1.2849014E-001	-1.2864333E-001	3.621440086155614E-003	2.000000000000000E+000	-1.5327621E-005	4.6587414E-007
2	1	0	0	1	3.942383900407003E+002	-1.2519141E-001	-1.2532946E-001	3.570713073976450E-003	2.000000000000000E+000	-1.5279446E-005	4.4751556E-007
2	1	0	1	1	3.942517900403618E+002	-1.2184267E-001	-1.2196952E-001	3.504191718335884E-003	2.000000000000000E+000	-1.5231324E-005	4.2740459E-007
2	1	0	0	1	3.942651900400233E+002	-1.1849394E-001	-1.1861271E-001	3.434155588102949E-003	2.000000000000000E+000	-1.5184121E-005	4.0733451E-007
2	1	0	0	1	3.942783900396898E+002	-1.1519520E-001	-1.1530600E-001	3.358404242175719E-003	2.000000000000000E+000	-1.5138598E-005	3.8724417E-007
2	1	0	1	1	3.942917900393513E+002	-1.1184648E-001	-1.1195215E-001	3.273549434319050E-003	2.000000000000000E+000	-1.5093453E-005	3.6648089E-007
2	1	0	0	1	3.943051900390128E+002	-1.0849775E-001	-1.0862115E-001	3.194786936526514E-003	2.000000000000000E+000	-1.5049442E-005	3.4702143E-007
2	1	0	0	1	3.943183900386794E+002	-1.0519900E-001	-1.0532577E-001	3.108229127752160E-003	2.000000000000000E+000	-1.5007168E-005	3.2737663E-007
2	1	0	1	1	3.943317900383408E+002	-1.0185029E-001	-1.0197569E-001	3.030712328543614E-003	2.000000000000000E+000	-1.4965322E-005	3.0905900E-007
2	1	0	0	1	3.943450900380049E+002	-9.8518230E-002	-9.8650649E-002	2.948086653145641E-003	2.000000000000000E+000	-1.4924862E-005	2.9083066E-007
2	1	0	0	1	3.943583900376689E+002	-9.5186166E-002	-9.5305659E-002	2.877410388757412E-003	2.000000000000000E+000	-1.4885412E-005	2.7423349E-007
2	1	0	1	1	3.943717900373304E+002	-9.1837436E-002	-9.1968127E-002	2.800465016631892E-003	2.000000000000000E+000	-1.4846686E-005	2.5755352E-007
2	1	0	1	1	3.943849900369969E+002	-8.8538691E-002	-8.8664465E-002	2.729417890582730E-003	2.000000000000000E+000	-1.4809489E-005	2.4200239E-007
2	1	0	0	1	3.943983900366584E+002	-8.5189976E-002	-8.5329175E-002	2.665778792521049E-003	2.000000000000000E+000	-1.4772640E-005	2.2746870E-007
2	1	0	1	1	3.944117900363199E+002	-8.1841245E-002	-8.1989326E-002	2.603516587411529E-003	2.000000000000000E+000	-1.4736645E-005	2.1346057E-007
2	1	0	1	1	3.944249900359864E+002	-7.8542501E-002	-7.8690454E-002	2.550362117734845E-003	2.000000000000000E+000	-1.4701937E-005	2.0068916E-007
2	1	0	0	1	3.944383900356479E+002	-7.5193785E-002	-7.5345613E-002	2.493284591734368E-003	2.000000000000000E+000	-1.4667437E-005	1.8785805E-007
2	1	0	1	1	3.944517900353094E+002	-7.1845055E-002	-7.1982108E-002	2.446285512794723E-003	2.000000000000000E+000	-1.4633663E-005	1.7608879E-007
2	1	0	1	1	3.944649900349759E+002	-6.8546310E-002	-6.8692803E-002	2.394989163854517E-003	2.000000000000000E+000	-1.4601008E-005	1.6451853E-007
2	1	0	0	1	3.944783900346374E+002	-6.5197594E-002	-6.5333337E-002	2.349965498625457E-003	2.000000000000000E+000	-1.4568500E-005	1.5353109E-007
2	1	0	1	1	3.944917900342989E+002	-6.1848879E-002	-6.2004797E-002	2.304740552194248E-003	2.000000000000000E+000	-1.4536621E-005	1.4290497E-007
2	1	0	1	1	3.945049900339654E+002	-5.8550131E-002	-5.8715627E-002	2.267367412372958E-003	2.000000000000000E+000	-1.4505748E-005	1.3312990E-007
2	1	0	0	1	3.945183900336269E+002	-5.5195853E-002	-5.5344105E-002	2.231531127593681E-003	2.000000000000000E+000	-1.4474876E-005	1.2350209E-007
2	1	0	0	1	3.945315900332935E+002	-5.1886003E-002	-5.2048609E-002	2.200484007415883E-003	2.000000000000000E+000	-1.4444909E-005	1.1453213E-007
2	1	0	1	1	3.945449900329550E+002	-4.8537280E-002	-4.8690122E-002	2.167519357044515E-003	2.000000000000000E+000	-1.4414911E-005	1.0553678E-007
2	1	0	0	1	3.945583900326164E+002	-4.5188557E-002	-4.5343552E-002	2.137453836419612E-003	2.000000000000000E+000	-1.4385356E-005	9.6919749E-008
2	1	0	0	1	3.945715900322830E+002	-4.1889809E-002	-4.2038009E-002	2.112042353322373E-003	2.000000000000000E+000	-1.4356603E-005	8.8786052E-008
2	1	0	1	1	3.945849900319445E+002	-3.8541086E-002	-3.8683943E-002	2.082666786029426E-003	2.000000000000000E+000	-1.4327768E-005	8.0565762E-008
2	1	0	0	1	3.945983900316060E+002	-3.5192363E-002	-3.5333917E-002	2.058151846156549E-003	2.000000000000000E+000	-1.4299294E-005	7.2722564E-008
2	1	0	0	1	3.946115900312725E+002	-3.1893626E-002	-3.2030813E-002	2.038252338853554E-003	2.000000000000000E+000	-1.4271537E-005	6.5286883E-008
2	1	0	1	1	3.946249900309340E+002	-2.8544903E-002	-2.8677100E-002	2.016538577269484E-003	2.000000000000000E+000	-1.4243650E-005	5.7828480E-008
2	1	0	0	1	3.946383900305955E+002	-2.5196178E-002	-2.5329551E-002	1.996903001104840E-003	2.000000000000000E+000	-1.4216058E-005	5.0580656E-008
2	1	0	0	1	3.946515900302620E+002	-2.1897435E-002	-2.2002544E-002	1.979340986134857E-003	2.000000000000000E+000	-1.4189102E-005	4.3550539E-008
2	1	0	1	1	3.946649900299235E+002	-1.8548710E-002	-1.8683610E-002	1.956313351113046E-003	2.000000000000000E+000	-1.4161995E-005	3.6550997E-008
2	1	0	0	1	3.946783900295850E+002	-1.5199988E-002	-1.5341246E-002	1.944391730002182E-003	2.000000000000000E+000	-1.4135153E-005	2.9829391E-008
2	1	0	0	1	3.946915900292515E+002	-1.1895692E-002	-1.2035731E-002	1.931786004822952E-003	2.000000000000000E+000	-1.4108854E-005	2.3250458E-008
2	1	0	1	1	3.947049900289130E+002	-8.5358610E-003	-8.6805830E-003	1.914164510930683E-003	2.000000000000000E+000	-1.4082365E-005	1.6616063E-008
2	1	0	1	1	3.947181900285796E+002	-5.2371183E-003	-5.3785332E-003	1.898486020026117E-003	2.000000000000000E+000	-1.4056477E-005	1.0211070E-008
2	1	0	0	1	3.947315900282410E+002	-1.8883952E-003	-2.0411913E-003	1.887235249230595E-003	2.000000000000000E+000	-1.4030383E-005	3.8522083E-009
2	1	0	1	1	3.947449900279025E+002	1.4659037E-003	1.3202508E-003	1.877663657392583E-003	2.000000000000000E+000	-1.4004429E-005	2.4789870E-009
2	1	0	1	1	3.947581900275691E+002	4.7590691E-003	4.6400093E-003	1.864939527806399E-003	2.000000000000000E+000	-1.3979003E-005	8.6533367E-009
2	1	0	0	1	3.947715900272306E+002	8.1077907E-003	7.9902895E-003	1.856130809654946E-003	2.000000000000000E+000	-1.3953351E-005	1.4831023E-008
2	1	0	1	1	3.947849900268920E+002	1.1456513E-002	1.1344004E-002	1.843066207493400E-003	2.000000000000000E+000	-1.3927850E-005	2.0907752E-008
2	1	0	1	1	3.947981900265586E+002	1.4755253E-002	1.4660488E-002	1.838935607429443E-003	2.000000000000000E+000	-1.3902827E-005	2.6959693E-008
2	1	0	0	1	3.948115900262201E+002	1.8103974E-002	1.7999481E-002	1.827797979573622E-003	2.000000000000000E+000	-1.3877552E-005	3.2899415E-008
2	1	0	1	1	3.948249900258816E+002	2.1452695E-002	2.1361018E-002	1.817602290056038E-003	2.000000000000000E+000	-1.3852425E-005	3.8825835E-008
2	1	0	1	1	3.948381900255481E+002	2.4751438E-002	2.4656484E-002	1.812269510951925E-003	2.000000000000000E+000	-1.3827755E-005	4.4684192E-008
2	1	0	0	1	3.948515900252096E+002	2.8100159E-002	2.7981935E-002	1.804022605483629E-003	2.000000000000000E+000	-1.3802808E-005	5.0480043E-008
2	1	0	1	1	3.948648900248736E+002	3.1426575E-002	3.1329926E-002	1.798601861247154E-003	2.000000000000000E+000	-1.3778140E-005	5.6350064E-008
2	1	0	1	1	3.948781900245376E+002	3.4764282E-002	3.4663260E-002	1.795085473572221E-003	2.000000000000000E+000	-1.3753524E-005	6.2223513E-008
2	1	0	0	1	3.948915900241991E+002	3.8113005E-002	3.8019612E-002	1.791534538329469E-003	2.000000000000000E+000	-1.3728787E-005	6.8113451E-008
2	1	0	0	1	3.949047900238656E+002	4.1411743E-002	4.1299503E-002	1.784075461192622E-003	2.000000000000000E+000	-1.3704492E-005	7.3681427E-008
2	1	0	1	1	3.949181900235271E+002	4.4760469E-002	4.4660468E-002	1.780611881945837E-003	2.000000000000000E+000	-1.3679880E-005	7.9522962E-008
2	1	0	0	1	3.949315900231886E+002	4.8109185E-002	4.8011161E-002	1.777796493934163E-003	2.000000000000000E+000	-1.3655331E-005	8.5354074E-008
2	1	0	0	1	3.949447900228552E+002	5.1407930E-002	5.1298678E-002	1.770887695834569E-003	2.000000000000000E+000	-1.3631187E-005	9.0844196E-008
2	1	0	1	1	3.949581900225166E+002	5.4756649E-002	5.4673377E-002	1.771810659010959E-003	2.000000000000000E+000	-1.3606716E-005	9.6870870E-008
2	1	0	0	1	3.949715900221781E+002	5.8105376E-002	5.8022328E-002	1.768895723610817E-003	2.000000000000000E+000	-1.3582286E-005	1.0263545E-007
2	1	0	0	1	3.949847900218447E+002	6.1404120E-002	6.1327137E-002	1.762893766246845E-003	2.000000000000000E+000	-1.3558260E-005	1.0811323E-007
2	1	0	1	1	3.949981900215062E+002	6.4752840E-002	6.4668640E-002	1.758696921357723E-003	2.000000000000000E+000	-1.3533908E-005	1.1373254E-007
2	1	0	0	1	3.950115900211676E+002	6.8101563E-002	6.8014733E-002	1.760694370952689E-003	2.000000000000000E+000	-1.3509608E-005	1.1975315E-007
2	1	0	0	1	3.950247900208342E+002	7.1400300E-002	7.1305938E-002	1.759521220002272E-003	2.000000000000000E+000	-1.3485672E-005	1.2546431E-007
2	1	0	1	1	3.950381900204957E+002	7.4749023E-002	7.4646965E-002	1.757786618670970E-003	2.000000000000000E+000	-1.3461389E-005	1.3121344E-007
2	1	0	1	1	3.950513900201622E+002	7.8064427E-002	7.7990785E-002	1.759523304998672E-003	2.000000000000000E+000	-1.3437452E-005	1.3722661E-007
2	1	0	0	1	3.950647900198237E+002	8.1413142E-002	8.1317008E-002	1.755903471106049E-003	2.000000000000000E+000	-1.3413159E-005	1.4278481E-007
2	1	0	1	1	3.950781900194852E+002	8.4761865E-002	8.4665701E-002	1.754520632635426E-003	2.000000000000000E+000	-1.3388909E-005	1.4854771E-007
2	1	0	1	1	3.950913900191517E+002	8.8060603E-002	8.7951563E-002	1.755330690553419E-003	2.000000000000000E+000	-1.3365025E-005	1.5438408E-007
2	1	0	0	1	3.951047900188132E+002	9.1409326E-002	9.1304578E-002	1.756191223557833E-003	2.000000000000000E+000	-1.3340761E-005	1.6034829E-007
2	1	0	1	1	3.951181900184747E+002	9.4758049E-002	9.4640836E-002	1.756501168418053E-003	2.000000000000000E+000	-1.3316513E-005	1.6623675E-007
2	1	0	1	1	3.951313900181412E+002	9.8056793E-002	9.7944245E-002	1.757107031648452E-003	2.000000000000000E+000	-1.3292609E-005	1.7209852E-007
2	0	0	0	1	3.951391900179442E+002	9.9906117E-002	9.9829853E-002	1.731545734219249E-003	2.000000000000000E+000	-1.3278509E-005	1.7285996E-007
2	0	0	0	1	3.951463900177623E+002	9.8090112E-002	9.7955287E-002	1.211111001930477E-003	2.000000000000000E+000	-1.3269854E-005	1.1863472E-007
2	0	0	1	1	3.951597900174238E+002	9.4741397E-002	9.4601884E-002	1.022278697731357E-003	2.000000000000000E+000	-1.3255737E-005	9.6709492E-008
2	0	0	0	1	3.951731900170853E+002	9.1392674E-002	9.1252685E-002	9.173901589797926E-004	2.000000000000000E+000	-1.3243505E-005	8.3714312E-008
2	0	0	0	1	3.951863900167518E+002	8.8093929E-002	8.7936163E-002	8.347684825164639E-004	2.000000000000000E+000	-1.3232703E-005	7.3406341E-008
2	0	0	1	1	3.951997900164133E+002	8.4745213E-002	8.4597178E-002	7.610233827841113E-004	2.000000000000000E+000	-1.3222767E-005	6.4380430E-008
2	0	0	0	1	3.952131900160748E+002	8.1396483E-002	8.1271023E-002	6.969228239086086E-004	2.000000000000000E+000	-1.3213721E-005	5.6639632E-008
2	0	0	0	1	3.952263900157413E+002	7.8097738E-002	7.7987298E-002	6.394430814250646E-004	2.000000000000000E+000	-1.3205648E-005	4.9868440E-008
2	0	0	1	1	3.952397900154028E+002	7.4732356E-002	7.4597701E-002	5.789098196929558E-004	2.000000000000000E+000	-1.3198251E-005	4.3185342E-008
2	0	0	1	1	3.952529900150694E+002	7.1433619E-002	7.1314581E-002	5.288770660349159E-004	2.000000000000000E+000	-1.3191673E-005	3.7716646E-008
2	0	0	0	1	3.952663900147309E+002	6.8084896E-002	6.7961946E-002	4.817263545697260E-004	2.000000000000000E+000	-1.3185663E-005	3.2739059E-008
2	0	0	1	1	3.952797900143923E+002	6.4736180E-002	6.4623334E-002	4.354710972418420E-004	2.000000000000000E+000	-1.3180281E-005	2.8141594E-008
2	0	0	1	1	3.952929900140589E+002	6.1437435E-002	6.1305523E-002	3.878464024460813E-004	2.000000000000000E+000	-1.3175594E-005	2.3777126E-008
2	0	0	0	1	3.953063900137204E+002	5.8088720E-002	5.7970721E-002	3.457744679318843E-004	2.000000000000000E+000	-1.3171417E-005	2.0044796E-008
2	0	0	1	1	3.953197900133819E+002	5.4739993E-002	5.4620594E-002	3.013208372421024E-004	2.000000000000000E+000	-1.3167816E-005	1.6458323E-008
2	0	0	1	1	3.953329900130484E+002	5.1441252E-002	5.1317625E-002	2.625145371919434E-004	2.000000000000000E+000	-1.3164829E-005	1.3471623E-008
2	0	0	0	1	3.953463900127099E+002	4.8092533E-002	4.7956601E-002	2.226726991820102E-004	2.000000000000000E+000	-1.3162327E-005	1.0678626E-008
2	0	0	1	1	3.953597900123714E+002	4.4743806E-002	4.4609182E-002	1.832443884621981E-004	2.000000000000000E+000	-1.3160339E-005	8.1743821E-009
2	0	0	1	1	3.953729900120379E+002	4.1445065E-002	4.1282203E-002	1.464656974349052E-004	2.000000000000000E+000	-1.3158900E-005	6.0464265E-009
2	0	0	0	1	3.953863900116994E+002	3.8096346E-002	3.7951861E-002	1.120648903186828E-004	2.000000000000000E+000	-1.3157902E-005	4.2530712E-009
2	0	0	1	1	3.953997900113609E+002	3.4747623E-002	3.4601007E-002	7.482263964928080E-005	2.000000000000000E+000	-1.3157391E-005	2.5889386E-009
2	0	0	1	1	3.954129900110274E+002	3.1432219E-002	3.1281851E-002	3.943992854797476E-005	2.000000000000000E+000	-1.3157372E-005	1.2337540E-009
2	0	0	0	1	3.954263900106889E+002	2.8083500E-002	2.7932366E-002	6.468318321682849E-006	2.000000000000000E+000	-1.3157790E-005	1.8067543E-010
2	0	0	0	1	3.954395900103555E+002	2.4784757E-002	2.4639318E-002	-2.515345705557734E-005	2.000000000000000E+000	-1.3158641E-005	6.1976402E-010
2	0	0	1	1	3.954682900096304E+002	1.7625287E-002	1.7431317E-002	-1.115873025938567E-004	2.000000000000000E+000	-1.3162934E-005	1.9451136E-009
2	0	0	1	1	3.954969900089054E+002	1.0440234E-002	1.0198937E-002	-2.145075922890612E-004	2.000000000000000E+000	-1.3168211E-005	2.1877493E-009
2	0	0	0	1	3.955103900085669E+002	7.0915115E-003	6.8382896E-003	-2.434697257399400E-004	2.000000000000000E+000	-1.3171354E-005	1.6649165E-009
2	0	0	0	1	3.955235900082334E+002	3.7927707E-003	3.5453986E-003	-2.748226157159987E-004	2.000000000000000E+000	-1.3174851E-005	9.7435571E-010
2	0	0	1	1	3.955369900078949E+002	4.4404870E-004	1.5321175E-004	-3.079247270130105E-004	2.000000000000000E+000	-1.3178847E-005	4.7177685E-011
2	0	0	0	1	3.955503900075564E+002	-2.9046743E-003	-3.1786934E-003	-3.343528261603333E-004	2.000000000000000E+000	-1.3183228E-005	1.0628051E-009
2	0	0	0	1	3.955635900072230E+002	-6.2034172E-003	-6.4810924E-003	-3.637910906011000E-004	2.000000000000000E+000	-1.3187907E-005	2.3577638E-009
2	0	0	1	1	3.955769900068844E+002	-9.5521398E-003	-9.8140463E-003	-3.938029842604201E-004	2.000000000000000E+000	-1.3193073E-005	3.8648009E-009
2	0	0	1	1	3.955901900065510E+002	-1.2867543E-002	-1.3148782E-002	-4.247094537125420E-004	2.000000000000000E+000	-1.3198548E-005	5.5844120E-009
2	0	0	0	1	3.956035900062125E+002	-1.6216267E-002	-1.6515853E-002	-4.499263842363782E-004	2.000000000000000E+000	-1.3204490E-005	7.4309181E-009
2	0	0	1	1	3.956169900058740E+002	-1.9564990E-002	-1.9843942E-002	-4.790791991076230E-004	2.000000000000000E+000	-1.3210793E-005	9.5068193E-009
2	0	0	1	1	3.956301900055405E+002	-2.2863733E-002	-2.3131717E-002	-5.068974645433214E-004	2.000000000000000E+000	-1.3217370E-005	1.1725409E-008
2	0	0	0	1	3.956435900052020E+002	-2.6212454E-002	-2.6462857E-002	-5.347363317064775E-004	2.000000000000000E+000	-1.3224438E-005	1.4150651E-008
2	0	0	1	1	3.956569900048635E+002	-2.9561179E-002	-2.9835906E-002	-5.655309805938993E-004	2.000000000000000E+000	-1.3231887E-005	1.6873129E-008
2	0	0	1	1	3.956701900045300E+002	-3.2859921E-002	-3.3132296E-002	-5.923746905586464E-004	2.000000000000000E+000	-1.3239597E-005	1.9626734E-008
2	0	0	0	1	3.956835900041915E+002	-3.6208645E-002	-3.6474213E-002	-6.191284716528063E-004	2.000000000000000E+000	-1.3247802E-005	2.2582224E-008
2	0	0	1	1	3.956969900038530E+002	-3.9557364E-002	-3.9822556E-002	-6.484662690834520E-004	2.000000000000000E+000	-1.3256378E-005	2.5823585E-008
2	0	0	1	1	3.957101900035195E+002	-4.2856108E-002	-4.3130711E-002	-6.773295663227430E-004	2.000000000000000E+000	-1.3265209E-005	2.9213705E-008
2	0	0	0	1	3.957235900031810E+002	-4.6204831E-002	-4.6494666E-002	-7.036080207222352E-004	2.000000000000000E+000	-1.3274548E-005	3.2714020E-008
2	0	0	1	1	3.957369900028425E+002	-4.9553558E-002	-4.9828988E-002	-7.333953050268384E-004	2.000000000000000E+000	-1.3284247E-005	3.6544346E-008
2	0	0	1	1	3.957501900025090E+002	-5.2852303E-002	-5.3148367E-002	-7.609486001254294E-004	2.000000000000000E+000	-1.3294175E-005	4.0443176E-008
2	0	0	0	1	3.957635900021705E+002	-5.6217689E-002	-5.6518145E-002	-7.917214285852354E-004	2.000000000000000E+000	-1.3304661E-005	4.4746628E-008
2	0	0	0	1	3.957767900018371E+002	-5.9516426E-002	-5.9809666E-002	-8.170740019421661E-004	2.000000000000000E+000	-1.3315338E-005	4.8868923E-008
2	0	0	1	1	3.957901900014986E+002	-6.2865153E-002	-6.3146569E-002	-8.432386523559675E-004	2.000000000000000E+000	-1.3326549E-005	5.3247629E-008
2	0	0	0	1	3.958035900011600E+002	-6.6213876E-002	-6.6508226E-002	-8.761884953299940E-004	2.000000000000000E+000	-1.3338145E-005	5.8273741E-008
2	0	0	0	1	3.958167900008266E+002	-6.9512613E-002	-6.9790848E-002	-9.019256933697779E-004	2.000000000000000E+000	-1.3349950E-005	6.2946157E-008
2	0	0	1	1	3.958301900004881E+002	-7.2861336E-002	-7.3149145E-002	-9.351706864739137E-004	2.000000000000000E+000	-1.3362346E-005	6.8406933E-008
2	0	0	0	1	3.958435900001496E+002	-7.6210059E-002	-7.6509066E-002	-9.651805313145197E-004	2.000000000000000E+000	-1.3375152E-005	7.3845058E-008
2	0	0	0	1	3.958567899998161E+002	-7.9508796E-002	-7.9795726E-002	-9.951780266571116E-004	2.000000000000000E+000	-1.3388165E-005	7.9410952E-008
2	0	0	0	1	3.959007899987046E+002	-9.0504616E-002	-9.0672702E-002	-1.053810098321464E-003	2.000000000000000E+000	-1.3433729E-005	9.5551812E-008
2	0	0	1	1	3.959141899983661E+002	-9.3853340E-002	-9.4021305E-002	-1.091963946757657E-003	2.000000000000000E+000	-1.3448845E-005	1.0266788E-007
2	0	0	0	1	3.959274899980301E+002	-9.7179748E-002	-9.7354926E-002	-1.130763936186979E-003	2.000000000000000E+000	-1.3464354E-005	1.1008544E-007
2	0	0	0	1	3.959407899976941E+002	-1.0051746E-001	-1.0067764E-001	-1.166641474153746E-003	2.000000000000000E+000	-1.3480394E-005	1.1745471E-007
2	0	0	1	1	3.959541899973556E+002	-1.0386618E-001	-1.0402173E-001	-1.209078017791397E-003	2.000000000000000E+000	-1.3497058E-005	1.2577038E-007
2	0	0	1	1	3.959673899970221E+002	-1.0716492E-001	-1.0733083E-001	-1.254551575306722E-003	2.000000000000000E+000	-1.3514044E-005	1.3465205E-007
2	0	0	0	1	3.959807899966836E+002	-1.1051366E-001	-1.1067805E-001	-1.299045536754624E-003	2.000000000000000E+000	-1.3531886E-005	1.4377584E-007
2	0	0	1	1	3.959941899963451E+002	-1.1386238E-001	-1.1402717E-001	-1.350987612062860E-003	2.000000000000000E+000	-1.3550379E-005	1.5404930E-007
2	0	0	1	1	3.960073899960116E+002	-1.1716112E-001	-1.1732613E-001	-1.404845956423946E-003	2.000000000000000E+000	-1.3569293E-005	1.6482514E-007
2	0	0	0	1	3.960207899956731E+002	-1.2050984E-001	-1.2067571E-001	-1.458863287987493E-003	2.000000000000000E+000	-1.3589225E-005	1.7604935E-007
2	0	0	1	1	3.960341899953346E+002	-1.2385856E-001	-1.2403303E-001	-1.521239924032768E-003	2.000000000000000E+000	-1.3609926E-005	1.8868400E-007
2	0	0	1	1	3.960473899950011E+002	-1.2715732E-001	-1.2734295E-001	-1.589795405900277E-003	2.000000000000000E+000	-1.3631186E-005	2.0244924E-007
2	0	0	0	1	3.960607899946626E+002	-1.3050602E-001	-1.3071248E-001	-1.659403148510645E-003	2.000000000000000E+000	-1.3653686E-005	2.1690470E-007
2	0	0	1	1	3.960741899943241E+002	-1.3385476E-001	-1.3402432E-001	-1.731676976942246E-003	2.000000000000000E+000	-1.3677132E-005	2.3208683E-007
2	0	0	1	1	3.960873899939907E+002	-1.3715349E-001	-1.3734157E-001	-1.816475620600812E-003	2.000000000000000E+000	-1.3701285E-005	2.4947761E-007
2	0	0	0	1	3.961007899936521E+002	-1.4050221E-001	-1.4069434E-001	-1.903245044195496E-003	2.000000000000000E+000	-1.3726950E-005	2.6777579E-007
2	0	0	0	1	3.961139899933187E+002	-1.4381762E-001	-1.4400876E-001	-1.994795815365550E-003	2.000000000000000E+000	-1.3753411E-005	2.8726805E-007
2	0	0	1	1	3.961273899929802E+002	-1.4716634E-001	-1.4736414E-001	-2.096679011790704E-003	2.000000000000000E+000	-1.3781569E-005	3.0897530E-007
2	0	0	0	1	3.961407899926417E+002	-1.5051506E-001	-1.5068635E-001	-2.200656772351470E-003	2.000000000000000E+000	-1.3811101E-005	3.3160893E-007
2	0	0	0	1	3.961539899923082E+002	-1.5381381E-001	-1.5399000E-001	-2.316376651227373E-003	2.000000000000000E+000	-1.3841653E-005	3.5669885E-007
2	0	0	1	1	3.961673899919697E+002	-1.5716253E-001	-1.5733032E-001	-2.438355060288208E-003	2.000000000000000E+000	-1.3874280E-005	3.8362717E-007
2	0	0	0	1	3.961807899916312E+002	-1.6051126E-001	-1.6070043E-001	-2.570412291879612E-003	2.000000000000000E+000	-1.3908600E-005	4.1306635E-007
2	0	0	0	1	3.961939899912977E+002	-1.6381001E-001	-1.6400364E-001	-2.705602316695560E-003	2.000000000000000E+000	-1.3944158E-005	4.4372862E-007
2	0	0	1	1	3.962073899909592E+002	-1.6715874E-001	-1.6735297E-001	-2.847750241309972E-003	2.000000000000000E+000	-1.3982118E-005	4.7657949E-007
2	0	0	0	1	3.962207899906207E+002	-1.7050745E-001	-1.7071186E-001	-3.007339195735551E-003	2.000000000000000E+000	-1.4022115E-005	5.1338844E-007
2	0	0	0	1	3.962339899902872E+002	-1.7380619E-001	-1.7401937E-001	-3.163546758524823E-003	2.000000000000000E+000	-1.4063591E-005	5.5051839E-007
2	0	0	1	1	3.962473899899487E+002	-1.7715491E-001	-1.7735854E-001	-3.331029937584780E-003	2.000000000000000E+000	-1.4107863E-005	5.9078661E-007
2	0	0	0	1	3.962607899896102E+002	-1.8050364E-001	-1.8070889E-001	-3.508909908830696E-003	2.000000000000000E+000	-1.4154451E-005	6.3409118E-007
2	0	0	0	1	3.962739899892767E+002	-1.8380240E-001	-1.8400641E-001	-3.690677781762332E-003	2.000000000000000E+000	-1.4202749E-005	6.7910838E-007
2	0	0	1	1	3.962873899889382E+002	-1.8716775E-001	-1.8737930E-001	-3.875129893155329E-003	2.000000000000000E+000	-1.4254210E-005	7.2611914E-007
2	0	0	1	1	3.963005899886048E+002	-1.9046649E-001	-1.9065087E-001	-4.059793106009443E-003	2.000000000000000E+000	-1.4307351E-005	7.7400307E-007
2	0	0	0	1	3.963139899882663E+002	-1.9381523E-001	-1.9401269E-001	-4.253582052196080E-003	2.000000000000000E+000	-1.4363824E-005	8.2524889E-007
2	0	0	1	1	3.963273899879277E+002	-1.9716395E-001	-1.9736145E-001	-4.439653036064972E-003	2.000000000000000E+000	-1.4422834E-005	8.7621640E-007
2	0	0	1	1	3.963405899875943E+002	-2.0046270E-001	-2.0066291E-001	-4.634377568213999E-003	2.000000000000000E+000	-1.4483471E-005	9.2994770E-007
2	0	0	0	1	3.963539899872558E+002	-2.0381142E-001	-2.0400764E-001	-4.819081525804188E-003	2.000000000000000E+000	-1.4547580E-005	9.8312944E-007
2	0	0	1	1	3.963673899869173E+002	-2.0716015E-001	-2.0737113E-001	-4.991559897441933E-003	2.000000000000000E+000	-1.4614116E-005	1.0351055E-006
2	0	0	1	1	3.963805899865838E+002	-2.1045889E-001	-2.1065183E-001	-5.168073715968689E-003	2.000000000000000E+000	-1.4681927E-005	1.0886641E-006
2	0	0	0	1	3.963939899862453E+002	-2.1380761E-001	-2.1403475E-001	-5.327874357276909E-003	2.000000000000000E+000	-1.4753019E-005	1.1403503E-006
2	0	0	1	1	3.964073899859068E+002	-2.1715635E-001	-2.1737139E-001	-5.476322463821088E-003	2.000000000000000E+000	-1.4826141E-005	1.1903958E-006
2	0	0	1	1	3.964205899855733E+002	-2.2045507E-001	-2.2067802E-001	-5.601244126571855E-003	2.000000000000000E+000	-1.4899975E-005	1.2360714E-006
2	0	0	0	1	3.964339899852348E+002	-2.2380379E-001	-2.2403523E-001	-5.715441238802063E-003	2.000000000000000E+000	-1.4976539E-005	1.2804602E-006
2	0	0	1	1	3.964473899848963E+002	-2.2715253E-001	-2.2738144E-001	-5.805008971502601E-003	2.000000000000000E+000	-1.5054433E-005	1.3199513E-006
2	0	0	1	1	3.964605899845628E+002	-2.3046792E-001	-2.3069252E-001	-5.876824968961747E-003	2.000000000000000E+000	-1.5132277E-005	1.3557395E-006
2	0	0	0	1	3.964739899842243E+002	-2.3381664E-001	-2.3402205E-001	-5.933517556412759E-003	2.000000000000000E+000	-1.5212128E-005	1.3885740E-006
2	0	0	0	1	3.964871899838909E+002	-2.3711540E-001	-2.3733699E-001	-5.966083715894563E-003	2.000000000000000E+000	-1.5291367E-005	1.4159724E-006
2	0	0	1	1	3.965005899835523E+002	-2.4046411E-001	-2.4066423E-001	-5.988140888358529E-003	2.000000000000000E+000	-1.5372201E-005	1.4411313E-006
2	0	0	0	1	3.965139899832138E+002	-2.4381283E-001	-2.4404040E-001	-5.997467376679784E-003	2.000000000000000E+000	-1.5453221E-005	1.4636244E-006
2	0	0	0	1	3.965271899828804E+002	-2.4711160E-001	-2.4732703E-001	-5.982532225951007E-003	2.000000000000000E+000	-1.5532991E-005	1.4796419E-006
2	0	0	1	1	3.965405899825419E+002	-2.5046030E-001	-2.5067899E-001	-5.959433233915151E-003	2.000000000000000E+000	-1.5613739E-005	1.4939047E-006
2	0	0	0	1	3.965539899822033E+002	-2.5380903E-001	-2.5404343E-001	-5.927388477276592E-003	2.000000000000000E+000	-1.5694102E-005	1.5058141E-006
2	0	0	0	1	3.965671899818699E+002	-2.5710779E-001	-2.5730550E-001	-5.884411136058670E-003	2.000000000000000E+000	-1.5772743E-005	1.5140914E-006
2	0	0	1	1	3.965805899815314E+002	-2.6045650E-001	-2.6064435E-001	-5.830381042849487E-003	2.000000000000000E+000	-1.5851943E-005	1.5196558E-006
2	0	0	0	1	3.965939899811929E+002	-2.6380524E-001	-2.6399156E-001	-5.775975647055842E-003	2.000000000000000E+000	-1.5930431E-005	1.5248088E-006
2	0	0	0	1	3.966071899808594E+002	-2.6710397E-001	-2.6732260E-001	-5.722784932004286E-003	2.000000000000000E+000	-1.6007016E-005	1.5298298E-006
2	0	0	1	1	3.966205899805209E+002	-2.7045271E-001	-2.7065918E-001	-5.652682137729709E-003	2.000000000000000E+000	-1.6083930E-005	1.5299503E-006
2	0	0	0	1	3.966338899801849E+002	-2.7379039E-001	-2.7397418E-001	-5.599033786004473E-003	2.000000000000000E+000	-1.6159445E-005	1.5339907E-006
2	0	0	0	1	3.966471899798489E+002	-2.7711684E-001	-2.7730915E-001	-5.527188355821056E-003	2.000000000000000E+000	-1.6234149E-005	1.5327399E-006
2	0	0	1	1	3.966605899795104E+002	-2.8046551E-001	-2.8064924E-001	-5.462068761476563E-003	2.000000000000000E+000	-1.6308457E-005	1.5329255E-006
2	0	0	1	1	3.966737899791769E+002	-2.8376427E-001	-2.8394589E-001	-5.396282368645998E-003	2.000000000000000E+000	-1.6380813E-005	1.5322522E-006
2	0	0	0	1	3.966871899788384E+002	-2.8711295E-001	-2.8729996E-001	-5.341100689151446E-003	2.000000000000000E+000	-1.6453478E-005	1.5344980E-006
2	0	0	1	1	3.967005899784999E+002	-2.9046169E-001	-2.9065210E-001	-5.274007370482850E-003	2.000000000000000E+000	-1.6525288E-005	1.5329013E-006
2	0	0	1	1	3.967137899781665E+002	-2.9376045E-001	-2.9394597E-001	-5.223062144513180E-003	2.000000000000000E+000	-1.6595257E-005	1.5352981E-006
2	0	0	0	1	3.967271899778279E+002	-2.9710919E-001	-2.9731524E-001	-5.172156475439088E-003	2.000000000000000E+000	-1.6665614E-005	1.5377609E-006
2	0	0	1	1	3.967405899774894E+002	-3.0045789E-001	-3.0067667E-001	-5.112287151597315E-003	2.000000000000000E+000	-1.6735239E-005	1.5371455E-006
2	0	0	1	1	3.967537899771560E+002	-3.0375665E-001	-3.0396417E-001	-5.064342746421369E-003	2.000000000000000E+000	-1.6803137E-005	1.5393787E-006
2	0	0	0	1	3.967671899768175E+002	-3.0710539E-001	-3.0732325E-001	-5.021519430718185E-003	2.000000000000000E+000	-1.6871421E-005	1.5432297E-006
2	0	0	1	1	3.967805899764790E+002	-3.1045410E-001	-3.1067133E-001	-4.977868899651305E-003	2.000000000000000E+000	-1.6939130E-005	1.5464811E-006
2	0	0	1	1	3.967937899761455E+002	-3.1375283E-001	-3.1397206E-001	-4.936172167718817E-003	2.000000000000000E+000	-1.7005266E-005	1.5498201E-006
2	0	0	0	1	3.968071899758070E+002	-3.1711268E-001	-3.1735885E-001	-4.898164022920863E-003	2.000000000000000E+000	-1.7071881E-005	1.5544757E-006
2	0	0	0	1	3.968203899754735E+002	-3.2041699E-001	-3.2061440E-001	-4.857022441238867E-003	2.000000000000000E+000	-1.7136959E-005	1.5572314E-006
2	0	0	1	1	3.968337899751350E+002	-3.2376570E-001	-3.2396480E-001	-4.827110677191132E-003	2.000000000000000E+000	-1.7202576E-005	1.5638140E-006
2	0	0	0	1	3.968471899747965E+002	-3.2711440E-001	-3.2730004E-001	-4.799200804356793E-003	2.000000000000000E+000	-1.7267757E-005	1.5707786E-006
2	0	0	0	1	3.968603899744630E+002	-3.3041316E-001	-3.3061406E-001	-4.771138530284363E-003	2.000000000000000E+000	-1.7331624E-005	1.5774054E-006
2	0	0	1	1	3.968737899741245E+002	-3.3376190E-001	-3.3399922E-001	-4.745803396589421E-003	2.000000000000000E+000	-1.7396102E-005	1.5850947E-006
2	0	0	0	1	3.968871899737860E+002	-3.3711064E-001	-3.3730945E-001	-4.723310933796789E-003	2.000000000000000E+000	-1.7460257E-005	1.5932175E-006
2	0	0	0	1	3.969003899734525E+002	-3.4040937E-001	-3.4064418E-001	-4.704527941976261E-003	2.000000000000000E+000	-1.7523196E-005	1.6025700E-006
2	0	0	1	1	3.969137899731140E+002	-3.4375811E-001	-3.4401643E-001	-4.684519469103372E-003	2.000000000000000E+000	-1.7586824E-005	1.6115516E-006
2	0	0	0	1	3.969271899727755E+002	-3.4710678E-001	-3.4733266E-001	-4.662952714028903E-003	2.000000000000000E+000	-1.7650143E-005	1.6195958E-006
2	0	0	0	1	3.969403899724421E+002	-3.5040551E-001	-3.5064578E-001	-4.652966306053299E-003	2.000000000000000E+000	-1.7712333E-005	1.6315430E-006
2	0	0	1	1	3.969537899721036E+002	-3.5375425E-001	-3.5400218E-001	-4.635710694391393E-003	2.000000000000000E+000	-1.7775295E-005	1.6410517E-006
2	0	0	0	1	3.969671899717650E+002	-3.5710299E-001	-3.5734558E-001	-4.625212726225264E-003	2.000000000000000E+000	-1.7838061E-005	1.6527994E-006
2	0	0	0	1	3.969803899714316E+002	-3.6040726E-001	-3.6063978E-001	-4.612688366857270E-003	2.000000000000000E+000	-1.7899743E-005	1.6635189E-006
2	0	0	1	1	3.969937899710931E+002	-3.6376709E-001	-3.6398122E-001	-4.602946858176436E-003	2.000000000000000E+000	-1.7962211E-005	1.6753862E-006
2	0	0	1	1	3.970069899707596E+002	-3.6706585E-001	-3.6727819E-001	-4.599044048619452E-003	2.000000000000000E+000	-1.8023671E-005	1.6891286E-006
2	0	0	0	1	3.970203899704211E+002	-3.7041456E-001	-3.7063375E-001	-4.593844014723566E-003	2.000000000000000E+000	-1.8086004E-005	1.7026337E-006
2	0	0	1	1	3.970337899700826E+002	-3.7376329E-001	-3.7399635E-001	-4.591011059104255E-003	2.000000000000000E+000	-1.8148259E-005	1.7170214E-006
2	0	0	1	1	3.970469899697491E+002	-3.7706202E-001	-3.7729362E-001	-4.588015898803453E-003	2.000000000000000E+000	-1.8209530E-005	1.7310291E-006
2	0	0	0	1	3.970603899694106E+002	-3.8041076E-001	-3.8065264E-001	-4.586331937995659E-003	2.000000000000000E+000	-1.8271716E-005	1.7457993E-006
2	0	0	1	1	3.970737899690721E+002	-3.8375950E-001	-3.8400722E-001	-4.585258551863557E-003	2.000000000000000E+000	-1.8333874E-005	1.7607724E-006
2	0	0	1	1	3.970869899687386E+002	-3.8705823E-001	-3.8731593E-001	-4.584074813970385E-003	2.000000000000000E+000	-1.8395081E-005	1.7754852E-006
2	0	0	0	1	3.971003899684001E+002	-3.9040697E-001	-3.9063203E-001	-4.585698325718104E-003	2.000000000000000E+000	-1.8457222E-005	1.7913206E-006
2	0	0	1	1	3.971137899680616E+002	-3.9375567E-001	-3.9400199E-001	-4.587727485805868E-003	2.000000000000000E+000	-1.8519391E-005	1.8075738E-006
2	0	0	1	1	3.971269899677282E+002	-3.9705443E-001	-3.9729860E-001	-4.585290896668287E-003	2.000000000000000E+000	-1.8580655E-005	1.8217297E-006
2	0	0	0	1	3.971403899673896E+002	-4.0040314E-001	-4.0064001E-001	-4.586706274696747E-003	2.000000000000000E+000	-1.8642873E-005	1.8376180E-006
2	0	0	1	1	3.971536899670537E+002	-4.0372959E-001	-4.0397164E-001	-4.596599383611167E-003	2.000000000000000E+000	-1.8704675E-005	1.8568958E-006
2	0	0	1	1	3.971669899667177E+002	-4.0706730E-001	-4.0730914E-001	-4.604135054675371E-003	2.000000000000000E+000	-1.8766565E-005	1.8753063E-006
2	0	0	0	1	3.971803899663792E+002	-4.1041601E-001	-4.1064337E-001	-4.608187411213289E-003	2.000000000000000E+000	-1.8828972E-005	1.8923216E-006
2	0	0	0	1	3.971935899660457E+002	-4.1371477E-001	-4.1395393E-001	-4.615374032214778E-003	2.000000000000000E+000	-1.8890532E-005	1.9105523E-006
2	0	0	1	1	3.972069899657072E+002	-4.1706350E-001	-4.1729900E-001	-4.613428809049441E-003	2.000000000000000E+000	-1.8953091E-005	1.9251793E-006
2	0	0	0	1	3.972203899653687E+002	-4.2041218E-001	-4.2063582E-001	-4.625516525569147E-003	2.000000000000000E+000	-1.9015728E-005	1.9456579E-006
2	0	0	0	1	3.972335899650352E+002	-4.2371094E-001	-4.2396200E-001	-4.636327309991552E-003	2.000000000000000E+000	-1.9077577E-005	1.9656266E-006
2	0	0	1	1	3.972469899646967E+002	-4.2705962E-001	-4.2727619E-001	-4.638919096012398E-003	2.000000000000000E+000	-1.9140451E-005	1.9820998E-006
2	0	0	0	1	3.972603899643582E+002	-4.3040836E-001	-4.3062520E-001	-4.653615431683035E-003	2.000000000000000E+000	-1.9203451E-005	2.0039640E-006
2	0	0	0	1	3.972735899640247E+002	-4.3370709E-001	-4.3391454E-001	-4.661712327773164E-003	2.000000000000000E+000	-1.9265673E-005	2.0227849E-006
2	0	0	1	1	3.972869899636862E+002	-4.3705586E-001	-4.3728596E-001	-4.674407511508119E-003	2.000000000000000E+000	-1.9328978E-005	2.0440527E-006
2	0	0	0	1	3.973003899633477E+002	-4.4040453E-001	-4.4061786E-001	-4.686571100683067E-003	2.000000000000000E+000	-1.9392424E-005	2.0649870E-006
2	0	0	0	1	3.973135899630142E+002	-4.4370329E-001	-4.4393274E-001	-4.698544311880441E-003	2.000000000000000E+000	-1.9455092E-005	2.0858377E-006
2	0	0	1	1	3.973269899626757E+002	-4.4705200E-001	-4.4727859E-001	-4.706706307034542E-003	2.000000000000000E+000	-1.9518850E-005	2.1052090E-006
2	0	0	1	1	3.973401899623423E+002	-4.5036745E-001	-4.5056897E-001	-4.724093717009554E-003	2.000000000000000E+000	-1.9581823E-005	2.1285300E-006
2	0	0	0	1	3.973535899620038E+002	-4.5371613E-001	-4.5391637E-001	-4.738112808121892E-003	2.000000000000000E+000	-1.9645946E-005	2.1507069E-006
2	0	0	1	1	3.973669899616652E+002	-4.5706487E-001	-4.5727247E-001	-4.753482606793112E-003	2.000000000000000E+000	-1.9710238E-005	2.1736366E-006
2	0	0	1	1	3.973801899613318E+002	-4.6036360E-001	-4.6057233E-001	-4.768359858240312E-003	2.000000000000000E+000	-1.9773819E-005	2.1961746E-006
2	0	0	0	1	3.973935899609933E+002	-4.6371236E-001	-4.6393347E-001	-4.778906318177976E-003	2.000000000000000E+000	-1.9838542E-005	2.2170946E-006
2	0	0	1	1	3.974069899606548E+002	-4.6706110E-001	-4.6728271E-001	-4.806435104445776E-003	2.000000000000000E+000	-1.9903495E-005	2.2459640E-006
2	0	0	1	1	3.974201899603213E+002	-4.7035983E-001	-4.7059724E-001	-4.815056360368726E-003	2.000000000000000E+000	-1.9967723E-005	2.2659522E-006
2	0	0	0	1	3.974335899599828E+002	-4.7370854E-001	-4.7394049E-001	-4.831987067195280E-003	2.000000000000000E+000	-2.0033103E-005	2.2900742E-006
2	0	0	1	1	3.974469899596443E+002	-4.7705725E-001	-4.7728848E-001	-4.853820375744049E-003	2.000000000000000E+000	-2.0098732E-005	2.3166726E-006
2	0	0	1	1	3.974601899593108E+002	-4.8035604E-001	-4.8059031E-001	-4.870648375840059E-003	2.000000000000000E+000	-2.0163647E-005	2.3407865E-006
2	0	0	0	1	3.974735899589723E+002	-4.8370472E-001	-4.8393601E-001	-4.893552433430946E-003	2.000000000000000E+000	-2.0229802E-005	2.3681662E-006
2	0	0	1	1	3.974869899586338E+002	-4.8705339E-001	-4.8729804E-001	-4.915335714152501E-003	2.000000000000000E+000	-2.0296249E-005	2.3952334E-006
2	0	0	1	1	3.975001899583003E+002	-4.9035218E-001	-4.9058282E-001	-4.934826074552104E-003	2.000000000000000E+000	-2.0361964E-005	2.4209410E-006
2	0	0	0	1	3.975135899579618E+002	-4.9371761E-001	-4.9393818E-001	-4.960376218150493E-003	2.000000000000000E+000	-2.0428970E-005	2.4501192E-006
2	0	0	0	1	3.975267899576284E+002	-4.9701634E-001	-4.9724239E-001	-4.980752613260420E-003	2.000000000000000E+000	-2.0495308E-005	2.4766414E-006
2	0	0	1	1	3.975401899572898E+002	-5.0036508E-001	-5.0059146E-001	-5.008005522742854E-003	2.000000000000000E+000	-2.0562959E-005	2.5069648E-006
2	0	0	0	1	3.975535899569513E+002	-5.0371373E-001	-5.0394523E-001	-5.033320779269455E-003	2.000000000000000E+000	-2.0630947E-005	2.5365180E-006
2	0	0	0	1	3.975667899566179E+002	-5.0701249E-001	-5.0725174E-001	-5.057031204928029E-003	2.000000000000000E+000	-2.0698251E-005	2.5651880E-006
2	0	0	1	1	3.975801899562794E+002	-5.1036119E-001	-5.1058728E-001	-5.086253889991588E-003	2.000000000000000E+000	-2.0766947E-005	2.5969764E-006
2	0	0	0	1	3.975935899559408E+002	-5.1370996E-001	-5.1394838E-001	-5.115245697884852E-003	2.000000000000000E+000	-2.0836016E-005	2.6289722E-006
2	0	0	0	1	3.976067899556074E+002	-5.1700866E-001	-5.1723659E-001	-5.139383278785506E-003	2.000000000000000E+000	-2.0904432E-005	2.6582770E-006
2	0	0	1	1	3.976201899552689E+002	-5.2035743E-001	-5.2059221E-001	-5.173925126675583E-003	2.000000000000000E+000	-2.0974294E-005	2.6935052E-006
2	0	0	0	1	3.976335899549304E+002	-5.2370614E-001	-5.2394181E-001	-5.204512698502282E-003	2.000000000000000E+000	-2.1044578E-005	2.7268618E-006
2	0	0	0	1	3.976467899545969E+002	-5.2700490E-001	-5.2724379E-001	-5.235353857541557E-003	2.000000000000000E+000	-2.1114214E-005	2.7603078E-006
2	0	0	1	1	3.976601899542584E+002	-5.3035361E-001	-5.3059018E-001	-5.274921878036465E-003	2.000000000000000E+000	-2.1185368E-005	2.7988217E-006
2	0	0	0	1	3.976735899539199E+002	-5.3370231E-001	-5.3392237E-001	-5.310066307194772E-003	2.000000000000000E+000	-2.1257001E-005	2.8351633E-006
2	0	0	0	1	3.976867899535864E+002	-5.3701770E-001	-5.3724200E-001	-5.351734562646010E-003	2.000000000000000E+000	-2.1328107E-005	2.8751765E-006
2	0	0	1	1	3.977001899532479E+002	-5.4036647E-001	-5.4058188E-001	-5.388281577911103E-003	2.000000000000000E+000	-2.1400787E-005	2.9128073E-006
2	0	0	1	1	3.977133899529144E+002	-5.4366517E-001	-5.4390079E-001	-5.428619408161861E-003	2.000000000000000E+000	-2.1472912E-005	2.9526304E-006
2	0	0	0	1	3.977267899525759E+002	-5.4701394E-001	-5.4723406E-001	-5.470511976171915E-003	2.000000000000000E+000	-2.1546695E-005	2.9936505E-006
2	0	0	1	1	3.977401899522374E+002	-5.5036265E-001	-5.5059588E-001	-5.518940535552685E-003	2.000000000000000E+000	-2.1621057E-005	3.0387059E-006
2	0	0	1	1	3.977533899519040E+002	-5.5366141E-001	-5.5390370E-001	-5.561444690708073E-003	2.000000000000000E+000	-2.1694917E-005	3.0805047E-006
2	0	0	0	1	3.977667899515654E+002	-5.5701005E-001	-5.5724859E-001	-5.617587368215006E-003	2.000000000000000E+000	-2.1770533E-005	3.1303925E-006
2	0	0	1	1	3.977801899512269E+002	-5.6035882E-001	-5.6059486E-001	-5.662006584174761E-003	2.000000000000000E+000	-2.1846821E-005	3.1740917E-006
2	0	0	1	1	3.977933899508935E+002	-5.6365752E-001	-5.6390637E-001	-5.715212754188900E-003	2.000000000000000E+000	-2.1922648E-005	3.2228450E-006
2	0	0	0	1	3.978067899505550E+002	-5.6700629E-001	-5.6725311E-001	-5.769189645959877E-003	2.000000000000000E+000	-2.2000353E-005	3.2725907E-006
2	0	0	1	1	3.978201899502164E+002	-5.7035506E-001	-5.7060617E-001	-5.823711557564420E-003	2.000000000000000E+000	-2.2078764E-005	3.3230458E-006
2	0	0	1	1	3.978333899498830E+002	-5.7365376E-001	-5.7388192E-001	-5.883109526500147E-003	2.000000000000000E+000	-2.2156781E-005	3.3762103E-006
2	0	0	0	1	3.978467899495445E+002	-5.7700247E-001	-5.7723588E-001	-5.947404988506190E-003	2.000000000000000E+000	-2.2236783E-005	3.4330556E-006
2	0	0	1	1	3.978600899492085E+002	-5.8034015E-001	-5.8056557E-001	-6.011674110518693E-003	2.000000000000000E+000	-2.2317030E-005	3.4901709E-006
2	0	0	1	1	3.978733899488725E+002	-5.8366656E-001	-5.8390069E-001	-6.079626253853752E-003	2.000000000000000E+000	-2.2398150E-005	3.5498979E-006
2	0	0	0	1	3.978867899485340E+002	-5.8701527E-001	-5.8724761E-001	-6.141665144585001E-003	2.000000000000000E+000	-2.2480735E-005	3.6066781E-006
2	0	0	0	1	3.978999899482005E+002	-5.9031403E-001	-5.9055001E-001	-6.214873410580258E-003	2.000000000000000E+000	-2.2563039E-005	3.6701936E-006
2	0	0	1	1	3.979133899478620E+002	-5.9366280E-001	-5.9389943E-001	-6.286067312289048E-003	2.000000000000000E+000	-2.2647564E-005	3.7332918E-006
2	0	0	0	1	3.979267899475235E+002	-5.9701145E-001	-5.9724098E-001	-6.363685331295221E-003	2.000000000000000E+000	-2.2733057E-005	3.8006538E-006
2	0	0	0	1	3.979353899473062E+002	-5.9916061E-001	-5.9942371E-001	-6.424371269531548E-003	2.000000000000000E+000	-2.2788388E-005	3.8509206E-006
2	0	0	0	1	3.979379899472406E+002	-5.9982693E-001	-6.0003507E-001	-6.431448971852660E-003	2.000000000000000E+000	-2.2805247E-005	3.8590952E-006