EC-Lab ASCII FILE
Nb header lines : 53                          

Cyclic Voltammetry

Run on channel : 1 (SN 0696)
User : 
Electrode connection : standard
Ewe ctrl range : min = -10.00 V, max = 10.00 V
Ewe,I filtering : 50 kHz
Channel : Grounded
Acquisition started on : 05/17/2017 12:14:48
Saved on :
	File : 100 uM MB 10mM PB Second ITO_02_CV_C01.mpr
	Directory : \\userfs\st659\w2k\EC-Lab\Data\ITO Characterisation 17-5-17\
	Host : 144.32.136.43
Device : SP-300 (SN 0182)
Address : USB
EC-Lab for windows v10.44 (software)
Internet server v10.44 (firmware)
Command interpretor v10.44 (firmware)
Electrode material : 
Initial state : 
Electrolyte : 
Comments : 
Cable : standard
Electrode surface area : 0.001 cm²
Characteristic mass : 0.001 g
Equivalent Weight : 0.000 g/eq.
Density : 0.000 g/cm3
Ei (V)              0.000               
vs.                 Eoc                 
dE/dt               50.000              
dE/dt unit          mV/s                
E1 (V)              0.100               
vs.                 Ref                 
Step percent        50                  
N                   10                  
E range min (V)     -10.000             
E range max (V)     10.000              
I Range             Auto                
I Range min         Unset               
I Range max         Unset               
I Range init        Unset               
Bandwidth           8                   
E2 (V)              -0.600              
vs.                 Ref                 
nc cycles           2                   
Reverse Scan        1                   
Ef (V)              0.000               
vs.                 Eoc                 

mode	ox/red	error	control changes	counter inc.	time/s	control/V	Ewe/V	<I>/mA	cycle number	(Q-Qo)/C	P/W
2	1	0	1	1	2.630517933547526E+002	-6.0016018E-001	-6.0033262E-001	-4.988939501345158E-003	2.000000000000000E+000	-4.0614632E-005	2.9950231E-006
2	1	0	1	1	2.630884933538255E+002	-5.9832877E-001	-5.9855032E-001	-4.665920726936043E-003	2.000000000000000E+000	-4.0785253E-005	2.7927883E-006
2	1	0	0	1	2.631551933521405E+002	-5.9499228E-001	-5.9521610E-001	-4.489998774917387E-003	2.000000000000000E+000	-4.1087118E-005	2.6725195E-006
2	1	0	1	1	2.632217933504580E+002	-5.9166360E-001	-5.9187841E-001	-4.350291659608437E-003	2.000000000000000E+000	-4.1378167E-005	2.5748436E-006
2	1	0	0	1	2.632883933487756E+002	-5.8833367E-001	-5.8853501E-001	-4.227132691457344E-003	2.000000000000000E+000	-4.1660529E-005	2.4878157E-006
2	1	0	1	1	2.633549933470931E+002	-5.8500278E-001	-5.8520049E-001	-4.116007353803783E-003	2.000000000000000E+000	-4.1935091E-005	2.4086896E-006
2	1	0	1	1	2.634217933454056E+002	-5.8166397E-001	-5.8185852E-001	-4.013529453880414E-003	2.000000000000000E+000	-4.2203370E-005	2.3353064E-006
2	1	0	0	1	2.634883933437231E+002	-5.7833201E-001	-5.7857347E-001	-3.919881266714373E-003	2.000000000000000E+000	-4.2464351E-005	2.2679392E-006
2	1	0	1	1	2.635549933420407E+002	-5.7500327E-001	-5.7522303E-001	-3.831958509882084E-003	2.000000000000000E+000	-4.2719257E-005	2.2042307E-006
2	1	0	0	1	2.636215933403582E+002	-5.7167453E-001	-5.7188624E-001	-3.748472180876428E-003	2.000000000000000E+000	-4.2968484E-005	2.1436997E-006
2	1	0	1	1	2.636881933386758E+002	-5.6834245E-001	-5.6856710E-001	-3.669484371641468E-003	2.000000000000000E+000	-4.3212309E-005	2.0863481E-006
2	1	0	1	1	2.637549933369883E+002	-5.6500369E-001	-5.6522650E-001	-3.594569946881905E-003	2.000000000000000E+000	-4.3451782E-005	2.0317461E-006
2	1	0	0	1	2.638215933353058E+002	-5.6167275E-001	-5.6188655E-001	-3.523985641830435E-003	2.000000000000000E+000	-4.3685668E-005	1.9800802E-006
2	1	0	1	1	2.638881933336233E+002	-5.5834293E-001	-5.5856586E-001	-3.456267821050581E-003	2.000000000000000E+000	-4.3914974E-005	1.9305533E-006
2	1	0	0	1	2.639547933319409E+002	-5.5501425E-001	-5.5524647E-001	-3.392921794443178E-003	2.000000000000000E+000	-4.4139899E-005	1.8839079E-006
2	1	0	1	1	2.640213933302584E+002	-5.5168217E-001	-5.5188608E-001	-3.329735639746853E-003	2.000000000000000E+000	-4.4360597E-005	1.8376347E-006
2	1	0	1	1	2.640881933285709E+002	-5.4834342E-001	-5.4856449E-001	-3.270689014868572E-003	2.000000000000000E+000	-4.4577926E-005	1.7941838E-006
2	1	0	0	1	2.641547933268885E+002	-5.4501361E-001	-5.4522234E-001	-3.215289394896414E-003	2.000000000000000E+000	-4.4790791E-005	1.7530476E-006
2	1	0	1	1	2.642213933252060E+002	-5.4168260E-001	-5.4188204E-001	-3.160316378616815E-003	2.000000000000000E+000	-4.4999939E-005	1.7125187E-006
2	1	0	0	1	2.642879933235236E+002	-5.3835386E-001	-5.3854901E-001	-3.107731365927485E-003	2.000000000000000E+000	-4.5205568E-005	1.6736657E-006
2	1	0	0	1	2.643546933218386E+002	-5.3501737E-001	-5.3521407E-001	-3.057731877584569E-003	2.000000000000000E+000	-4.5408084E-005	1.6365411E-006
2	1	0	1	1	2.644213933201536E+002	-5.3168315E-001	-5.3189266E-001	-3.009473009809891E-003	2.000000000000000E+000	-4.5607318E-005	1.6007166E-006
2	1	0	0	1	2.644879933184711E+002	-5.2835441E-001	-5.2857703E-001	-2.962272727272564E-003	2.000000000000000E+000	-4.5803125E-005	1.5657894E-006
2	1	0	1	1	2.645545933167887E+002	-5.2502233E-001	-5.2526081E-001	-2.918774419108643E-003	2.000000000000000E+000	-4.5995876E-005	1.5331178E-006
2	1	0	0	1	2.646211933151062E+002	-5.2169359E-001	-5.2191573E-001	-2.874925905069284E-003	2.000000000000000E+000	-4.6185673E-005	1.5004690E-006
2	1	0	0	1	2.646878933134212E+002	-5.1835817E-001	-5.1857156E-001	-2.832308098390558E-003	2.000000000000000E+000	-4.6372905E-005	1.4687544E-006
2	1	0	1	1	2.647545933117362E+002	-5.1502281E-001	-5.1523608E-001	-2.792471019703459E-003	2.000000000000000E+000	-4.6557383E-005	1.4387819E-006
2	1	0	0	1	2.648211933100538E+002	-5.1169401E-001	-5.1190978E-001	-2.750690089277640E-003	2.000000000000000E+000	-4.6738911E-005	1.4081052E-006
2	1	0	1	1	2.648877933083713E+002	-5.0836200E-001	-5.0855839E-001	-2.713540261673801E-003	2.000000000000000E+000	-4.6917823E-005	1.3799937E-006
2	1	0	0	1	2.649543933066889E+002	-5.0503325E-001	-5.0524449E-001	-2.677380194485726E-003	2.000000000000000E+000	-4.7094269E-005	1.3527316E-006
2	1	0	0	1	2.650210933050039E+002	-5.0169891E-001	-5.0191325E-001	-2.641665865145498E-003	2.000000000000000E+000	-4.7268572E-005	1.3258871E-006
2	1	0	1	1	2.650877933033189E+002	-4.9836245E-001	-4.9856046E-001	-2.606059113073350E-003	2.000000000000000E+000	-4.7440506E-005	1.2992780E-006
2	1	0	0	1	2.651543933016364E+002	-4.9503371E-001	-4.9523497E-001	-2.573484499663714E-003	2.000000000000000E+000	-4.7609879E-005	1.2744795E-006
2	1	0	1	1	2.652209932999540E+002	-4.9170277E-001	-4.9190158E-001	-2.538388171547109E-003	2.000000000000000E+000	-4.7777037E-005	1.2486371E-006
2	1	0	0	1	2.652875932982715E+002	-4.8837295E-001	-4.8858386E-001	-2.506145353467451E-003	2.000000000000000E+000	-4.7942001E-005	1.2244622E-006
2	1	0	0	1	2.653543932965840E+002	-4.8503423E-001	-4.8524013E-001	-2.474474261021791E-003	2.000000000000000E+000	-4.8105310E-005	1.2007142E-006
2	1	0	1	1	2.654209932949016E+002	-4.8170215E-001	-4.8194137E-001	-2.442593710695936E-003	2.000000000000000E+000	-4.8266011E-005	1.1771870E-006
2	1	0	0	1	2.654875932932191E+002	-4.7837344E-001	-4.7859105E-001	-2.413598061216805E-003	2.000000000000000E+000	-4.8424681E-005	1.1551265E-006
2	1	0	1	1	2.655541932915366E+002	-4.7504357E-001	-4.7524142E-001	-2.382989035218532E-003	2.000000000000000E+000	-4.8581340E-005	1.1324951E-006
2	1	0	0	1	2.656207932898542E+002	-4.7171262E-001	-4.7192967E-001	-2.355350710244009E-003	2.000000000000000E+000	-4.8736092E-005	1.1115599E-006
2	1	0	0	1	2.656875932881667E+002	-4.6837386E-001	-4.6856675E-001	-2.326786495872434E-003	2.000000000000000E+000	-4.8889404E-005	1.0902547E-006
2	1	0	1	1	2.657541932864842E+002	-4.6504292E-001	-4.6522996E-001	-2.298711423476103E-003	2.000000000000000E+000	-4.9040362E-005	1.0694295E-006
2	1	0	0	1	2.658207932848018E+002	-4.6171311E-001	-4.6189708E-001	-2.272599045475610E-003	2.000000000000000E+000	-4.9189541E-005	1.0497068E-006
2	1	0	1	1	2.658873932831193E+002	-4.5838439E-001	-4.5857745E-001	-2.245644541170818E-003	2.000000000000000E+000	-4.9336977E-005	1.0298020E-006
2	1	0	0	1	2.659539932814369E+002	-4.5505229E-001	-4.5522913E-001	-2.219985672811061E-003	2.000000000000000E+000	-4.9482627E-005	1.0106022E-006
2	1	0	0	1	2.660207932797493E+002	-4.5171356E-001	-4.5189282E-001	-2.194297945411814E-003	2.000000000000000E+000	-4.9627030E-005	9.9158751E-007
2	1	0	1	1	2.660873932780669E+002	-4.4838268E-001	-4.4854772E-001	-2.169627579429054E-003	2.000000000000000E+000	-4.9769311E-005	9.7318150E-007
2	1	0	0	1	2.661539932763844E+002	-4.4505280E-001	-4.4524607E-001	-2.145226849149997E-003	2.000000000000000E+000	-4.9909941E-005	9.5515384E-007
2	1	0	1	1	2.662205932747020E+002	-4.4172409E-001	-4.4191927E-001	-2.120362479428137E-003	2.000000000000000E+000	-5.0048948E-005	9.3702903E-007
2	1	0	1	1	2.662872932730170E+002	-4.3838751E-001	-4.3858463E-001	-2.096505034441025E-003	2.000000000000000E+000	-5.0186583E-005	9.1949488E-007
2	1	0	0	1	2.663539932713320E+002	-4.3505326E-001	-4.3524846E-001	-2.073380550313364E-003	2.000000000000000E+000	-5.0322604E-005	9.0243572E-007
2	1	0	1	1	2.664205932696495E+002	-4.3172342E-001	-4.3188715E-001	-2.051743412268478E-003	2.000000000000000E+000	-5.0456951E-005	8.8612160E-007
2	1	0	0	1	2.664871932679671E+002	-4.2839247E-001	-4.2857203E-001	-2.030336324631423E-003	2.000000000000000E+000	-5.0589842E-005	8.7014536E-007
2	1	0	1	1	2.665537932662846E+002	-4.2506373E-001	-4.2527798E-001	-2.007480686866715E-003	2.000000000000000E+000	-5.0721275E-005	8.5373733E-007
2	1	0	1	1	2.666204932645996E+002	-4.2172831E-001	-4.2193070E-001	-1.986321039038329E-003	2.000000000000000E+000	-5.0851479E-005	8.3808982E-007
2	1	0	0	1	2.666871932629147E+002	-4.1839296E-001	-4.1859502E-001	-1.965889007587420E-003	2.000000000000000E+000	-5.0980267E-005	8.2291132E-007
2	1	0	1	1	2.667537932612322E+002	-4.1506422E-001	-4.1525340E-001	-1.944752736737729E-003	2.000000000000000E+000	-5.1107454E-005	8.0756519E-007
2	1	0	0	1	2.668203932595497E+002	-4.1173217E-001	-4.1191539E-001	-1.923787652781093E-003	2.000000000000000E+000	-5.1233219E-005	7.9243773E-007
2	1	0	1	1	2.668869932578673E+002	-4.0840343E-001	-4.0860566E-001	-1.903277069111711E-003	2.000000000000000E+000	-5.1357638E-005	7.7768982E-007
2	1	0	1	1	2.669536932561823E+002	-4.0506801E-001	-4.0526870E-001	-1.883139079195059E-003	2.000000000000000E+000	-5.1480925E-005	7.6317730E-007
2	1	0	0	1	2.670203932544973E+002	-4.0173265E-001	-4.0194944E-001	-1.863334602191746E-003	2.000000000000000E+000	-5.1602849E-005	7.4896627E-007
2	1	0	1	1	2.670869932528149E+002	-3.9840391E-001	-3.9861399E-001	-1.843612392208115E-003	2.000000000000000E+000	-5.1723277E-005	7.3488968E-007
2	1	0	0	1	2.671535932511324E+002	-3.9507294E-001	-3.9529920E-001	-1.823968375709596E-003	2.000000000000000E+000	-5.1842399E-005	7.2101324E-007
2	1	0	1	1	2.672201932494499E+002	-3.9174309E-001	-3.9194864E-001	-1.804773596956733E-003	2.000000000000000E+000	-5.1960200E-005	7.0737855E-007
2	1	0	1	1	2.672868932477650E+002	-3.8840881E-001	-3.8862681E-001	-1.784776867060599E-003	2.000000000000000E+000	-5.2076895E-005	6.9361215E-007
2	1	0	0	1	2.673535932460800E+002	-3.8507232E-001	-3.8531381E-001	-1.766483712280571E-003	2.000000000000000E+000	-5.2192358E-005	6.8065054E-007
2	1	0	1	1	2.674201932443975E+002	-3.8174358E-001	-3.8194653E-001	-1.746972469771913E-003	2.000000000000000E+000	-5.2306354E-005	6.6725011E-007
2	1	0	0	1	2.674867932427151E+002	-3.7841377E-001	-3.7859309E-001	-1.728555202164686E-003	2.000000000000000E+000	-5.2419102E-005	6.5441907E-007
2	1	0	1	1	2.675533932410326E+002	-3.7508279E-001	-3.7526488E-001	-1.711509414766669E-003	2.000000000000000E+000	-5.2530686E-005	6.4226936E-007
2	1	0	1	1	2.676201932393451E+002	-3.7174407E-001	-3.7193865E-001	-1.694295211229545E-003	2.000000000000000E+000	-5.2641444E-005	6.3017387E-007
2	1	0	0	1	2.676867932376626E+002	-3.6841202E-001	-3.6860877E-001	-1.676402140728894E-003	2.000000000000000E+000	-5.2750660E-005	6.1793656E-007
2	1	0	1	1	2.677533932359802E+002	-3.6508328E-001	-3.6526775E-001	-1.659598335212261E-003	2.000000000000000E+000	-5.2858763E-005	6.0619777E-007
2	1	0	0	1	2.678199932342977E+002	-3.6175343E-001	-3.6194053E-001	-1.641883026968414E-003	2.000000000000000E+000	-5.2965726E-005	5.9426401E-007
2	1	0	1	1	2.678865932326153E+002	-3.5842249E-001	-3.5861650E-001	-1.624434995083118E-003	2.000000000000000E+000	-5.3071537E-005	5.8254921E-007
2	1	0	1	1	2.679533932309278E+002	-3.5508376E-001	-3.5529387E-001	-1.607692277865246E-003	2.000000000000000E+000	-5.3176536E-005	5.7120320E-007
2	1	0	0	1	2.680199932292453E+002	-3.5175282E-001	-3.5195461E-001	-1.590590612462372E-003	2.000000000000000E+000	-5.3280091E-005	5.5981570E-007
2	1	0	1	1	2.680865932275628E+002	-3.4842297E-001	-3.4861374E-001	-1.573453192926583E-003	2.000000000000000E+000	-5.3382479E-005	5.4852740E-007
2	1	0	0	1	2.681531932258804E+002	-3.4509426E-001	-3.4530634E-001	-1.557186701879710E-003	2.000000000000000E+000	-5.3483775E-005	5.3770646E-007
2	1	0	1	1	2.682197932241979E+002	-3.4176219E-001	-3.4198058E-001	-1.539976559656727E-003	2.000000000000000E+000	-5.3583964E-005	5.2664205E-007
2	1	0	1	1	2.682865932225104E+002	-3.3842346E-001	-3.3860591E-001	-1.522979190521294E-003	2.000000000000000E+000	-5.3683299E-005	5.1568975E-007
2	1	0	0	1	2.683531932208280E+002	-3.3509359E-001	-3.3528087E-001	-1.507850264740481E-003	2.000000000000000E+000	-5.3781230E-005	5.0555332E-007
2	1	0	1	1	2.684197932191455E+002	-3.3176264E-001	-3.3194846E-001	-1.491595915802956E-003	2.000000000000000E+000	-5.3878106E-005	4.9513295E-007
2	1	0	0	1	2.684863932174630E+002	-3.2843390E-001	-3.2860941E-001	-1.474321444291962E-003	2.000000000000000E+000	-5.3973872E-005	4.8447589E-007
2	1	0	0	1	2.685530932157781E+002	-3.2509741E-001	-3.2526866E-001	-1.458199952897058E-003	2.000000000000000E+000	-5.4068696E-005	4.7430674E-007
2	1	0	1	1	2.686197932140931E+002	-3.2176310E-001	-3.2193759E-001	-1.442106168537766E-003	2.000000000000000E+000	-5.4162450E-005	4.6426820E-007
2	1	0	0	1	2.686863932124106E+002	-3.1843439E-001	-3.1861302E-001	-1.426055721379459E-003	2.000000000000000E+000	-5.4254968E-005	4.5435993E-007
2	1	0	1	1	2.687529932107282E+002	-3.1510234E-001	-3.1528068E-001	-1.407913644391820E-003	2.000000000000000E+000	-5.4346372E-005	4.4388796E-007
2	1	0	0	1	2.688195932090457E+002	-3.1177363E-001	-3.1197330E-001	-1.392671064244826E-003	2.000000000000000E+000	-5.4436648E-005	4.3447619E-007
2	1	0	0	1	2.688862932073607E+002	-3.0843818E-001	-3.0861956E-001	-1.374202245969593E-003	2.000000000000000E+000	-5.4525910E-005	4.2410568E-007
2	1	0	1	1	2.689529932056757E+002	-3.0510280E-001	-3.0529234E-001	-1.356730524116615E-003	2.000000000000000E+000	-5.4613985E-005	4.1419943E-007
2	1	0	0	1	2.690195932039933E+002	-3.0177408E-001	-3.0195442E-001	-1.338797184883882E-003	2.000000000000000E+000	-5.4700766E-005	4.0425573E-007
2	1	0	1	1	2.690861932023108E+002	-2.9844201E-001	-2.9863036E-001	-1.321969613645640E-003	2.000000000000000E+000	-5.4786389E-005	3.9478024E-007
2	1	0	0	1	2.691527932006284E+002	-2.9511330E-001	-2.9525957E-001	-1.303007862369310E-003	2.000000000000000E+000	-5.4870769E-005	3.8472552E-007
2	1	0	0	1	2.692194931989434E+002	-2.9177898E-001	-2.9192743E-001	-1.285962517855464E-003	2.000000000000000E+000	-5.4954100E-005	3.7540772E-007
2	1	0	1	1	2.692861931972584E+002	-2.8844249E-001	-2.8860429E-001	-1.267026108695793E-003	2.000000000000000E+000	-5.5036253E-005	3.6566917E-007
2	1	0	0	1	2.693527931955759E+002	-2.8511375E-001	-2.8527564E-001	-1.248221565618296E-003	2.000000000000000E+000	-5.5117031E-005	3.5608721E-007
2	1	0	1	1	2.694193931938935E+002	-2.8178284E-001	-2.8192809E-001	-1.229452524508366E-003	2.000000000000000E+000	-5.5196509E-005	3.4661721E-007
2	1	0	0	1	2.694859931922110E+002	-2.7845296E-001	-2.7861807E-001	-1.209297416593043E-003	2.000000000000000E+000	-5.5274715E-005	3.3693212E-007
2	1	0	0	1	2.695527931905235E+002	-2.7511424E-001	-2.7528873E-001	-1.190436063659306E-003	2.000000000000000E+000	-5.5351851E-005	3.2771362E-007
2	1	0	1	1	2.696193931888411E+002	-2.7178219E-001	-2.7194813E-001	-1.168686849210357E-003	2.000000000000000E+000	-5.5427383E-005	3.1782221E-007
2	1	0	0	1	2.696859931871586E+002	-2.6845342E-001	-2.6863146E-001	-1.147186749551190E-003	2.000000000000000E+000	-5.5501445E-005	3.0817046E-007
2	1	0	1	1	2.697525931854761E+002	-2.6512361E-001	-2.6529041E-001	-1.123757588224925E-003	2.000000000000000E+000	-5.5574001E-005	2.9812210E-007
2	1	0	0	1	2.698191931837937E+002	-2.6179263E-001	-2.6195943E-001	-1.099267654224726E-003	2.000000000000000E+000	-5.5644981E-005	2.8796353E-007
2	1	0	0	1	2.698859931821062E+002	-2.5845394E-001	-2.5862348E-001	-1.075551887830897E-003	2.000000000000000E+000	-5.5714583E-005	2.7816299E-007
2	1	0	1	1	2.699525931804237E+002	-2.5512186E-001	-2.5529572E-001	-1.049976153587713E-003	2.000000000000000E+000	-5.5782268E-005	2.6805444E-007
2	1	0	0	1	2.700191931787413E+002	-2.5179315E-001	-2.5197780E-001	-1.020825933683899E-003	2.000000000000000E+000	-5.5848148E-005	2.5722548E-007
2	1	0	1	1	2.700857931770588E+002	-2.4846441E-001	-2.4866086E-001	-9.914276716447047E-004	2.000000000000000E+000	-5.5912078E-005	2.4652925E-007
2	1	0	0	1	2.701523931753763E+002	-2.4513234E-001	-2.4531379E-001	-9.592581799459804E-004	2.000000000000000E+000	-5.5973956E-005	2.3531926E-007
2	1	0	0	1	2.702191931736888E+002	-2.4179359E-001	-2.4196452E-001	-9.245641785247342E-004	2.000000000000000E+000	-5.6033772E-005	2.2371172E-007
2	1	0	1	1	2.702857931720064E+002	-2.3846266E-001	-2.3862612E-001	-8.888762693479107E-004	2.000000000000000E+000	-5.6091056E-005	2.1210910E-007
2	1	0	0	1	2.703523931703239E+002	-2.3513280E-001	-2.3530756E-001	-8.494474850922473E-004	2.000000000000000E+000	-5.6145822E-005	1.9988141E-007
2	1	0	1	1	2.704189931686415E+002	-2.3180409E-001	-2.3199171E-001	-8.079112301307050E-004	2.000000000000000E+000	-5.6197903E-005	1.8742871E-007
2	1	0	1	1	2.704856931669565E+002	-2.2846757E-001	-2.2864941E-001	-7.616593188255940E-004	2.000000000000000E+000	-5.6247114E-005	1.7415296E-007
2	1	0	0	1	2.705523931652715E+002	-2.2513330E-001	-2.2531214E-001	-7.108651243555968E-004	2.000000000000000E+000	-5.6293095E-005	1.6016655E-007
2	1	0	1	1	2.706189931635890E+002	-2.2180344E-001	-2.2199249E-001	-6.571028882911417E-004	2.000000000000000E+000	-5.6335484E-005	1.4587191E-007
2	1	0	0	1	2.706855931619066E+002	-2.1847250E-001	-2.1864806E-001	-5.970402675060729E-004	2.000000000000000E+000	-5.6374058E-005	1.3054169E-007
2	1	0	1	1	2.707688931598022E+002	-2.1430919E-001	-2.1449398E-001	-5.130945764640175E-004	2.000000000000000E+000	-5.6416102E-005	1.1005569E-007
2	1	0	1	1	2.708521931576979E+002	-2.1014234E-001	-2.1029948E-001	-4.072524713456902E-004	2.000000000000000E+000	-5.6452169E-005	8.5644984E-008
2	1	0	0	1	2.709187931560155E+002	-2.0681363E-001	-2.0696710E-001	-3.274587314370048E-004	2.000000000000000E+000	-5.6474419E-005	6.7773186E-008
2	1	0	0	1	2.709854931543305E+002	-2.0347820E-001	-2.0362183E-001	-2.374093703655755E-004	2.000000000000000E+000	-5.6491033E-005	4.8341732E-008
2	1	0	1	1	2.710521931526455E+002	-2.0014282E-001	-2.0028299E-001	-1.409296358993509E-004	2.000000000000000E+000	-5.6501438E-005	2.8225809E-008
2	1	0	0	1	2.711187931509630E+002	-1.9681408E-001	-1.9695765E-001	-3.802255182564494E-005	2.000000000000000E+000	-5.6505203E-005	7.4888327E-009
2	1	0	1	1	2.711853931492806E+002	-1.9348204E-001	-1.9361107E-001	7.019340792383997E-005	2.000000000000000E+000	-5.6501929E-005	1.3590221E-008
2	1	0	0	1	2.712519931475981E+002	-1.9015330E-001	-1.9028477E-001	1.821238122890855E-004	2.000000000000000E+000	-5.6491321E-005	3.4655390E-008
2	1	0	0	1	2.713186931459131E+002	-1.8681900E-001	-1.8695995E-001	2.997332384334344E-004	2.000000000000000E+000	-5.6473058E-005	5.6038111E-008
2	1	0	1	1	2.713853931442281E+002	-1.8348248E-001	-1.8361855E-001	4.174364767525916E-004	2.000000000000000E+000	-5.6446966E-005	7.6649080E-008
2	1	0	0	1	2.714519931425457E+002	-1.8015377E-001	-1.8028526E-001	5.303738645591125E-004	2.000000000000000E+000	-5.6413202E-005	9.5618589E-008
2	1	0	1	1	2.715185931408632E+002	-1.7682281E-001	-1.7695539E-001	6.399318939490500E-004	2.000000000000000E+000	-5.6371988E-005	1.1323939E-007
2	1	0	0	1	2.715851931391808E+002	-1.7349298E-001	-1.7362688E-001	7.371090688858863E-004	2.000000000000000E+000	-5.6323963E-005	1.2798195E-007
2	1	0	0	1	2.716519931374933E+002	-1.7015427E-001	-1.7029348E-001	8.256613202595343E-004	2.000000000000000E+000	-5.6269622E-005	1.4060474E-007
2	1	0	1	1	2.717185931358108E+002	-1.6682218E-001	-1.6693893E-001	9.010260950842019E-004	2.000000000000000E+000	-5.6209989E-005	1.5041633E-007
2	1	0	0	1	2.718018931337065E+002	-1.6265722E-001	-1.6279618E-001	9.599514145208106E-004	2.000000000000000E+000	-5.6128174E-005	1.5627643E-007
2	1	0	0	1	2.718851931316021E+002	-1.5849203E-001	-1.5863170E-001	1.001590741497656E-003	2.000000000000000E+000	-5.6042449E-005	1.5888403E-007
2	1	0	1	1	2.719517931299197E+002	-1.5516330E-001	-1.5528788E-001	1.022122681541886E-003	2.000000000000000E+000	-5.5971930E-005	1.5872327E-007
2	1	0	0	1	2.720183931282372E+002	-1.5183346E-001	-1.5196426E-001	1.023617686577959E-003	2.000000000000000E+000	-5.5900724E-005	1.5555331E-007
2	1	0	1	1	2.720849931265548E+002	-1.4850251E-001	-1.4864083E-001	1.016102353318596E-003	2.000000000000000E+000	-5.5829725E-005	1.5103430E-007
2	1	0	1	1	2.721517931248673E+002	-1.4516377E-001	-1.4531429E-001	9.990533622960796E-004	2.000000000000000E+000	-5.5759385E-005	1.4517673E-007
2	1	0	0	1	2.722183931231848E+002	-1.4183283E-001	-1.4197120E-001	9.725375387061221E-004	2.000000000000000E+000	-5.5690696E-005	1.3807232E-007
2	1	0	1	1	2.722849931215023E+002	-1.3850299E-001	-1.3864495E-001	9.421694661363453E-004	2.000000000000000E+000	-5.5623939E-005	1.3062704E-007
2	1	0	0	1	2.723515931198199E+002	-1.3517426E-001	-1.3529146E-001	9.079852989589861E-004	2.000000000000000E+000	-5.5559351E-005	1.2284265E-007
2	1	0	1	1	2.724181931181374E+002	-1.3184220E-001	-1.3198040E-001	8.686325368960635E-004	2.000000000000000E+000	-5.5497268E-005	1.1464248E-007
2	1	0	1	1	2.724849931164499E+002	-1.2850346E-001	-1.2863223E-001	8.306104160820480E-004	2.000000000000000E+000	-5.5437598E-005	1.0684327E-007
2	1	0	0	1	2.725515931147675E+002	-1.2517363E-001	-1.2527324E-001	7.928266132026553E-004	2.000000000000000E+000	-5.5380609E-005	9.9319962E-008
2	1	0	1	1	2.726181931130850E+002	-1.2184265E-001	-1.2193693E-001	7.534988681033080E-004	2.000000000000000E+000	-5.5326178E-005	9.1879343E-008
2	1	0	0	1	2.726847931114025E+002	-1.1851395E-001	-1.1861286E-001	7.175614561366664E-004	2.000000000000000E+000	-5.5274282E-005	8.5112013E-008
2	1	0	0	1	2.727514931097176E+002	-1.1517742E-001	-1.1528102E-001	6.832270039976007E-004	2.000000000000000E+000	-5.5224657E-005	7.8763108E-008
2	1	0	1	1	2.728181931080326E+002	-1.1184315E-001	-1.1193601E-001	6.513092602764602E-004	2.000000000000000E+000	-5.5177272E-005	7.2904960E-008
2	1	0	0	1	2.728847931063501E+002	-1.0851330E-001	-1.0862169E-001	6.199798932391316E-004	2.000000000000000E+000	-5.5132081E-005	6.7343265E-008
2	1	0	1	1	2.729513931046677E+002	-1.0518235E-001	-1.0528090E-001	5.916497769420546E-004	2.000000000000000E+000	-5.5088858E-005	6.2289423E-008
2	1	0	0	1	2.730179931029852E+002	-1.0185362E-001	-1.0197477E-001	5.654837204808749E-004	2.000000000000000E+000	-5.5047494E-005	5.7665073E-008
2	1	0	0	1	2.730846931013002E+002	-9.8518223E-002	-9.8648734E-002	5.404321470568376E-004	2.000000000000000E+000	-5.5007778E-005	5.3312949E-008
2	1	0	1	1	2.731513930996152E+002	-9.5182829E-002	-9.5319614E-002	5.174814164302856E-004	2.000000000000000E+000	-5.4969620E-005	4.9326129E-008
2	1	0	0	1	2.732179930979328E+002	-9.1854103E-002	-9.1956466E-002	4.978366876172277E-004	2.000000000000000E+000	-5.4932938E-005	4.5779302E-008
2	1	0	1	1	2.732845930962503E+002	-8.8522032E-002	-8.8643357E-002	4.780946008481023E-004	2.000000000000000E+000	-5.4897595E-005	4.2379909E-008
2	1	0	0	1	2.733511930945679E+002	-8.5193306E-002	-8.5316040E-002	4.604628120671592E-004	2.000000000000000E+000	-5.4863525E-005	3.9284863E-008
2	1	0	0	1	2.734178930928829E+002	-8.1859015E-002	-8.2019381E-002	4.436127812921403E-004	2.000000000000000E+000	-5.4830562E-005	3.6384847E-008
2	1	0	1	1	2.735011930907785E+002	-7.7694252E-002	-7.7835880E-002	4.255701046254178E-004	2.000000000000000E+000	-5.4790515E-005	3.3124625E-008
2	1	0	1	1	2.735844930886742E+002	-7.3528856E-002	-7.3654577E-002	4.131161706012933E-004	2.000000000000000E+000	-5.4751745E-005	3.0427898E-008
2	1	0	0	1	2.736511930869892E+002	-7.0192359E-002	-7.0310466E-002	3.996252904007024E-004	2.000000000000000E+000	-5.4722263E-005	2.8097840E-008
2	1	0	1	1	2.737177930853068E+002	-6.6863619E-002	-6.6994630E-002	3.875292927780223E-004	2.000000000000000E+000	-5.4693654E-005	2.5962381E-008
2	1	0	0	1	2.737843930836243E+002	-6.3532673E-002	-6.3656777E-002	3.763406295342314E-004	2.000000000000000E+000	-5.4665830E-005	2.3956632E-008
2	1	0	1	1	2.738509930819419E+002	-6.0202833E-002	-6.0335383E-002	3.657350536133116E-004	2.000000000000000E+000	-5.4638698E-005	2.2066764E-008
2	1	0	1	1	2.739177930802543E+002	-5.6864105E-002	-5.7000756E-002	3.554401777730726E-004	2.000000000000000E+000	-5.4612166E-005	2.0260359E-008
2	1	0	0	1	2.739843930785719E+002	-5.3532042E-002	-5.3671207E-002	3.475942271925015E-004	2.000000000000000E+000	-5.4586322E-005	1.8655802E-008
2	1	0	1	1	2.740509930768894E+002	-5.0203312E-002	-5.0328005E-002	3.399088773292527E-004	2.000000000000000E+000	-5.4561027E-005	1.7106936E-008
2	1	0	0	1	2.741175930752070E+002	-4.6873469E-002	-4.7012556E-002	3.308915079908142E-004	2.000000000000000E+000	-5.4536264E-005	1.5556056E-008
2	1	0	1	1	2.741841930735245E+002	-4.3542519E-002	-4.3679435E-002	3.243265819256073E-004	2.000000000000000E+000	-5.4512006E-005	1.4166401E-008
2	1	0	1	1	2.742509930718370E+002	-4.0203787E-002	-4.0319841E-002	3.182335712080958E-004	2.000000000000000E+000	-5.4488115E-005	1.2831127E-008
2	1	0	0	1	2.743175930701545E+002	-3.6872838E-002	-3.6992971E-002	3.112473884218608E-004	2.000000000000000E+000	-5.4464719E-005	1.1513966E-008
2	1	0	1	1	2.743841930684721E+002	-3.3542994E-002	-3.3668689E-002	3.043299714168002E-004	2.000000000000000E+000	-5.4441756E-005	1.0246391E-008
2	1	0	0	1	2.744507930667896E+002	-3.0214263E-002	-3.0336997E-002	3.000251282575680E-004	2.000000000000000E+000	-5.4419161E-005	9.1018615E-009
2	1	0	1	1	2.745173930651072E+002	-2.6882198E-002	-2.7004130E-002	2.947089697452161E-004	2.000000000000000E+000	-5.4396918E-005	7.9583593E-009
2	1	0	1	1	2.745841930634197E+002	-2.3543477E-002	-2.3665339E-002	2.891043815225491E-004	2.000000000000000E+000	-5.4374988E-005	6.8417529E-009
2	1	0	0	1	2.746507930617372E+002	-2.0213632E-002	-2.0344511E-002	2.841884385442923E-004	2.000000000000000E+000	-5.4353433E-005	5.7816747E-009
2	1	0	1	1	2.747173930600547E+002	-1.6882678E-002	-1.7021159E-002	2.797134977644096E-004	2.000000000000000E+000	-5.4332184E-005	4.7610480E-009
2	1	0	0	1	2.747839930583723E+002	-1.3553948E-002	-1.3694005E-002	2.749086331095491E-004	2.000000000000000E+000	-5.4311222E-005	3.7646002E-009
2	1	0	0	1	2.748506930566873E+002	-1.0217438E-002	-1.0346930E-002	2.718728309031937E-004	2.000000000000000E+000	-5.4290500E-005	2.8130491E-009
2	1	0	1	1	2.749173930550023E+002	-6.8831579E-003	-7.0286612E-003	2.681195599374432E-004	2.000000000000000E+000	-5.4270011E-005	1.8845216E-009
2	1	0	0	1	2.749839930533199E+002	-3.5533162E-003	-3.7022312E-003	2.650860516181268E-004	2.000000000000000E+000	-5.4249791E-005	9.8140984E-010
2	1	0	1	1	2.750505930516374E+002	-2.0991056E-004	-3.6482592E-004	2.617757495082485E-004	2.000000000000000E+000	-5.4229800E-005	9.5502578E-011
2	1	0	0	1	2.751171930499549E+002	3.1063661E-003	2.9951781E-003	2.587152477223596E-004	2.000000000000000E+000	-5.4209959E-005	7.7489826E-010
2	1	0	0	1	2.751838930482700E+002	6.4417594E-003	6.3270740E-003	2.555596796695401E-004	2.000000000000000E+000	-5.4190303E-005	1.6169450E-009
2	1	0	1	1	2.752505930465850E+002	9.7771538E-003	9.6576000E-003	2.532647050741347E-004	2.000000000000000E+000	-5.4170850E-005	2.4459292E-009
2	1	0	0	1	2.753171930449025E+002	1.3105882E-002	1.3016732E-002	2.505379908949224E-004	2.000000000000000E+000	-5.4151569E-005	3.2611860E-009
2	1	0	1	1	2.753837930432201E+002	1.6437944E-002	1.6365368E-002	2.481667564420901E-004	2.000000000000000E+000	-5.4132441E-005	4.0613402E-009
2	1	0	0	1	2.754503930415376E+002	1.9766673E-002	1.9681884E-002	2.459159607038270E-004	2.000000000000000E+000	-5.4113487E-005	4.8400892E-009
2	1	0	0	1	2.755170930398526E+002	2.3100952E-002	2.2990100E-002	2.439951546581200E-004	2.000000000000000E+000	-5.4094635E-005	5.6094729E-009
2	1	0	1	1	2.755837930381676E+002	2.6437461E-002	2.6336480E-002	2.423979762195118E-004	2.000000000000000E+000	-5.4075914E-005	6.3839094E-009
2	1	0	0	1	2.756503930364852E+002	2.9766193E-002	2.9666273E-002	2.407127438748362E-004	2.000000000000000E+000	-5.4057316E-005	7.1410500E-009
2	1	0	1	1	2.757169930348027E+002	3.3097140E-002	3.3000294E-002	2.392451235124784E-004	2.000000000000000E+000	-5.4038803E-005	7.8951592E-009
2	1	0	0	1	2.757835930331203E+002	3.6426980E-002	3.6351454E-002	2.377139621317495E-004	2.000000000000000E+000	-5.4020384E-005	8.6412477E-009
2	1	0	0	1	2.758502930314353E+002	3.9761260E-002	3.9661873E-002	2.365963462246790E-004	2.000000000000000E+000	-5.4002048E-005	9.3838546E-009
2	1	0	1	1	2.759169930297503E+002	4.3097764E-002	4.2987607E-002	2.359737394112576E-004	2.000000000000000E+000	-5.3983782E-005	1.0143946E-008
2	1	0	0	1	2.759835930280678E+002	4.6426497E-002	4.6349972E-002	2.351919727864118E-004	2.000000000000000E+000	-5.3965556E-005	1.0901141E-008
2	1	0	1	1	2.760501930263854E+002	4.9756337E-002	4.9666177E-002	2.343248267951308E-004	2.000000000000000E+000	-5.3947402E-005	1.1638019E-008
2	1	0	0	1	2.761167930247029E+002	5.3087287E-002	5.3013977E-002	2.335329171057590E-004	2.000000000000000E+000	-5.3929318E-005	1.2380508E-008
2	1	0	0	1	2.761835930230154E+002	5.6426011E-002	5.6343541E-002	2.329312252010201E-004	2.000000000000000E+000	-5.3911186E-005	1.3124170E-008
2	1	0	1	1	2.762501930213330E+002	5.9758078E-002	5.9682783E-002	2.326409348811453E-004	2.000000000000000E+000	-5.3893160E-005	1.3884659E-008
2	1	0	0	1	2.763167930196505E+002	6.3086808E-002	6.3017696E-002	2.315970401307716E-004	2.000000000000000E+000	-5.3875170E-005	1.4594712E-008
2	1	0	1	1	2.763833930179680E+002	6.6415541E-002	6.6324867E-002	2.310851129829027E-004	2.000000000000000E+000	-5.3857224E-005	1.5326689E-008
2	1	0	0	1	2.764499930162856E+002	6.9747597E-002	6.9659509E-002	2.312227589695068E-004	2.000000000000000E+000	-5.3839296E-005	1.6106863E-008
2	1	0	0	1	2.765167930145981E+002	7.3086321E-002	7.2992153E-002	2.311740334417522E-004	2.000000000000000E+000	-5.3821317E-005	1.6873891E-008
2	1	0	1	1	2.765833930129156E+002	7.6417275E-002	7.6327711E-002	2.311675332292632E-004	2.000000000000000E+000	-5.3803371E-005	1.7644489E-008
2	1	0	0	1	2.766499930112332E+002	7.9747111E-002	7.9677276E-002	2.316817291271604E-004	2.000000000000000E+000	-5.3785432E-005	1.8459769E-008
2	1	0	1	1	2.767165930095507E+002	8.3075836E-002	8.2975745E-002	2.319756212524069E-004	2.000000000000000E+000	-5.3767497E-005	1.9248350E-008
2	1	0	0	1	2.767831930078682E+002	8.6407907E-002	8.6305961E-002	2.313589944895563E-004	2.000000000000000E+000	-5.3749558E-005	1.9967660E-008
2	1	0	0	1	2.768499930061807E+002	8.9746632E-002	8.9637980E-002	2.322287224217072E-004	2.000000000000000E+000	-5.3731546E-005	2.0816513E-008
2	1	0	1	1	2.769165930044983E+002	9.3076468E-002	9.2966095E-002	2.321991989905391E-004	2.000000000000000E+000	-5.3713553E-005	2.1586652E-008
2	1	0	0	1	2.769831930028158E+002	9.6407428E-002	9.6297681E-002	2.330932190885858E-004	2.000000000000000E+000	-5.3695505E-005	2.2446336E-008
2	1	0	1	1	2.770331930015527E+002	9.8906472E-002	9.8805889E-002	2.346014500350188E-004	2.000000000000000E+000	-5.3681921E-005	2.3180005E-008
2	0	0	0	1	2.770535930010374E+002	9.9906117E-002	9.9772625E-002	2.304125848336534E-004	2.000000000000000E+000	-5.3676409E-005	2.2988868E-008
2	0	0	0	1	2.770903930001077E+002	9.8070115E-002	9.7957328E-002	1.399225775487161E-004	2.000000000000000E+000	-5.3672375E-005	1.3706442E-008
2	0	0	1	1	2.771569929984253E+002	9.4740279E-002	9.4627485E-002	7.714302054662572E-005	2.000000000000000E+000	-5.3667831E-005	7.2998501E-009
2	0	0	0	1	2.772235929967428E+002	9.1409333E-002	9.1294266E-002	3.075039865900936E-005	2.000000000000000E+000	-5.3666863E-005	2.8073350E-009
2	0	0	1	1	2.772901929950604E+002	8.8080592E-002	8.7943457E-002	-1.018752940676835E-005	2.000000000000000E+000	-5.3668773E-005	8.9592656E-010
2	0	0	1	1	2.773568929933754E+002	8.4745206E-002	8.4625065E-002	-4.622315014601972E-005	2.000000000000000E+000	-5.3673222E-005	3.9116372E-009
2	0	0	0	1	2.774235929916904E+002	8.1409819E-002	8.1294946E-002	-7.973147745443340E-005	2.000000000000000E+000	-5.3679996E-005	6.4817662E-009
2	0	0	1	1	2.774901929900079E+002	7.8081086E-002	7.7971555E-002	-1.098362918943537E-004	2.000000000000000E+000	-5.3688887E-005	8.5641068E-009
2	0	0	0	1	2.775567929883255E+002	7.4749023E-002	7.4635550E-002	-1.404512762796929E-004	2.000000000000000E+000	-5.3699827E-005	1.0482658E-008
2	0	0	1	1	2.776233929866430E+002	7.1420297E-002	7.1309902E-002	-1.691247401308391E-004	2.000000000000000E+000	-5.3712694E-005	1.2060268E-008
2	0	0	1	1	2.776900929849580E+002	6.8084896E-002	6.7975163E-002	-1.964530253599116E-004	2.000000000000000E+000	-5.3727446E-005	1.3353927E-008
2	0	0	0	1	2.777567929832730E+002	6.4749509E-002	6.4648785E-002	-2.224634430526978E-004	2.000000000000000E+000	-5.3743974E-005	1.4381992E-008
2	0	0	1	1	2.778233929815906E+002	6.1420780E-002	6.1340153E-002	-2.476386439516542E-004	2.000000000000000E+000	-5.3762185E-005	1.5190192E-008
2	0	0	0	1	2.778899929799081E+002	5.8089823E-002	5.7990421E-002	-2.724050398007496E-004	2.000000000000000E+000	-5.3782063E-005	1.5796882E-008
2	0	0	1	1	2.779565929782257E+002	5.4759979E-002	5.4659799E-002	-2.965734245846145E-004	2.000000000000000E+000	-5.3803571E-005	1.6210643E-008
2	0	0	1	1	2.780232929765407E+002	5.1425703E-002	5.1324263E-002	-3.192746563213432E-004	2.000000000000000E+000	-5.3826654E-005	1.6386537E-008
2	0	0	0	1	2.780899929748557E+002	4.8089195E-002	4.7984015E-002	-3.410319757286952E-004	2.000000000000000E+000	-5.3851239E-005	1.6364083E-008
2	0	0	1	1	2.781565929731732E+002	4.4760466E-002	4.4641156E-002	-3.622181208375601E-004	2.000000000000000E+000	-5.3877236E-005	1.6169835E-008
2	0	0	0	1	2.782231929714908E+002	4.1430626E-002	4.1301571E-002	-3.835876225359598E-004	2.000000000000000E+000	-5.3904652E-005	1.5842771E-008
2	0	0	1	1	2.782897929698083E+002	3.8099676E-002	3.7980478E-002	-4.032490159703471E-004	2.000000000000000E+000	-5.3933403E-005	1.5315591E-008
2	0	0	1	1	2.783565929681208E+002	3.4760952E-002	3.4627236E-002	-4.240823641135291E-004	2.000000000000000E+000	-5.3963591E-005	1.4684800E-008
2	0	0	0	1	2.784231929664384E+002	3.1428888E-002	3.1293910E-002	-4.428873382617466E-004	2.000000000000000E+000	-5.3995012E-005	1.3859676E-008
2	0	0	1	1	2.784897929647559E+002	2.8100159E-002	2.7960882E-002	-4.621248880828403E-004	2.000000000000000E+000	-5.4027692E-005	1.2921419E-008
2	0	0	0	1	2.785563929630734E+002	2.4770319E-002	2.4643062E-002	-4.806771597495587E-004	2.000000000000000E+000	-5.4061620E-005	1.1845357E-008
2	0	0	1	1	2.786229929613910E+002	2.1439368E-002	2.1303520E-002	-4.982787160244121E-004	2.000000000000000E+000	-5.4096745E-005	1.0615090E-008
2	0	0	1	1	2.786897929597035E+002	1.8100644E-002	1.7961144E-002	-5.157250772595302E-004	2.000000000000000E+000	-5.4133121E-005	9.2630126E-009
2	0	0	0	1	2.787563929580210E+002	1.4769693E-002	1.4642256E-002	-5.327552474489548E-004	2.000000000000000E+000	-5.4170585E-005	7.8007387E-009
2	0	0	1	1	2.788229929563386E+002	1.1439851E-002	1.1290441E-002	-5.498929047785270E-004	2.000000000000000E+000	-5.4209198E-005	6.2085337E-009
2	0	0	0	1	2.788895929546561E+002	8.1111221E-003	7.9440596E-003	-5.669669692279309E-004	2.000000000000000E+000	-5.4248932E-005	4.5040194E-009
2	0	0	1	1	2.789561929529737E+002	4.7790608E-003	4.6287086E-003	-5.826292534736564E-004	2.000000000000000E+000	-5.4289751E-005	2.6968210E-009
2	0	0	1	1	2.790229929512861E+002	1.4403351E-003	1.2586381E-003	-5.999079151768928E-004	2.000000000000000E+000	-5.4331798E-005	7.5506695E-010
2	0	0	0	1	2.790895929496037E+002	-1.8895059E-003	-2.0893801E-003	-6.148097924491671E-004	2.000000000000000E+000	-5.4374796E-005	1.2845713E-009
2	0	0	1	1	2.791561929479212E+002	-5.2204579E-003	-5.4008788E-003	-6.301334391868537E-004	2.000000000000000E+000	-5.4418797E-005	3.4032743E-009
2	0	0	0	1	2.792227929462388E+002	-8.5491892E-003	-8.7370435E-003	-6.458248613403165E-004	2.000000000000000E+000	-5.4463813E-005	5.6425997E-009
2	0	0	0	1	2.792894929445538E+002	-1.1885698E-002	-1.2058022E-002	-6.611085230388725E-004	2.000000000000000E+000	-5.4509921E-005	7.9716607E-009
2	0	0	1	1	2.793561929428688E+002	-1.5219980E-002	-1.5399997E-002	-6.750860599526723E-004	2.000000000000000E+000	-5.4556996E-005	1.0396324E-008
2	0	0	0	1	2.794227929411863E+002	-1.8549824E-002	-1.8716533E-002	-6.900030211891093E-004	2.000000000000000E+000	-5.4604978E-005	1.2914464E-008
2	0	0	1	1	2.794893929395039E+002	-2.1880774E-002	-2.2044951E-002	-7.043195839597279E-004	2.000000000000000E+000	-5.4653916E-005	1.5526691E-008
2	0	0	0	1	2.795559929378214E+002	-2.5209503E-002	-2.5395846E-002	-7.189627167318961E-004	2.000000000000000E+000	-5.4703811E-005	1.8258666E-008
2	0	0	0	1	2.796226929361364E+002	-2.8544897E-002	-2.8707858E-002	-7.329478529165944E-004	2.000000000000000E+000	-5.4754728E-005	2.1041362E-008
2	0	0	1	1	2.796893929344515E+002	-3.1880297E-002	-3.2057986E-002	-7.466418694590526E-004	2.000000000000000E+000	-5.4806598E-005	2.3935835E-008
2	0	0	0	1	2.797559929327690E+002	-3.5209026E-002	-3.5375565E-002	-7.611885071283940E-004	2.000000000000000E+000	-5.4859313E-005	2.6927474E-008
2	0	0	1	1	2.798225929310865E+002	-3.8541090E-002	-3.8712066E-002	-7.746120636329987E-004	2.000000000000000E+000	-5.4912944E-005	2.9986833E-008
2	0	0	0	1	2.798891929294041E+002	-4.1869819E-002	-4.2067587E-002	-7.881183667710779E-004	2.000000000000000E+000	-5.4967517E-005	3.3154237E-008
2	0	0	0	1	2.799558929277191E+002	-4.5204103E-002	-4.5405783E-002	-8.022809418865139E-004	2.000000000000000E+000	-5.5023076E-005	3.6428194E-008
2	0	0	1	1	2.800225929260341E+002	-4.8540607E-002	-4.8741125E-002	-8.152687589845827E-004	2.000000000000000E+000	-5.5079508E-005	3.9737117E-008
2	0	0	0	1	2.800891929243517E+002	-5.1869340E-002	-5.2092463E-002	-8.286195660523014E-004	2.000000000000000E+000	-5.5136759E-005	4.3164835E-008
2	0	0	1	1	2.801557929226692E+002	-5.5200297E-002	-5.5420350E-002	-8.426248655778871E-004	2.000000000000000E+000	-5.5194909E-005	4.6698567E-008
2	0	0	0	1	2.802223929209867E+002	-5.8530133E-002	-5.8736600E-002	-8.559266383385607E-004	2.000000000000000E+000	-5.5253939E-005	5.0274220E-008
2	0	0	0	1	2.802891929192992E+002	-6.1868861E-002	-6.2056541E-002	-8.685856544465003E-004	2.000000000000000E+000	-5.5313991E-005	5.3901420E-008
2	0	0	1	1	2.803557929176168E+002	-6.5200932E-002	-6.5390989E-002	-8.823931682063928E-004	2.000000000000000E+000	-5.5374774E-005	5.7700561E-008
2	0	0	0	1	2.804223929159343E+002	-6.8529658E-002	-6.8731464E-002	-8.961461888144073E-004	2.000000000000000E+000	-5.5436427E-005	6.1593440E-008
2	0	0	1	1	2.804889929142519E+002	-7.1859501E-002	-7.2064385E-002	-9.087725066168071E-004	2.000000000000000E+000	-5.5498989E-005	6.5490134E-008
2	0	0	0	1	2.805722929121475E+002	-7.6026432E-002	-7.6205328E-002	-9.233331946545999E-004	2.000000000000000E+000	-5.5579603E-005	7.0362908E-008
2	0	0	0	1	2.806555929100432E+002	-8.0189653E-002	-8.0353372E-002	-9.351199498426905E-004	2.000000000000000E+000	-5.5661279E-005	7.5140044E-008
2	0	0	1	1	2.807221929083607E+002	-8.3520606E-002	-8.3679654E-002	-9.490180079211180E-004	2.000000000000000E+000	-5.5726880E-005	7.9413496E-008
2	0	0	1	1	2.807889929066732E+002	-8.6859338E-002	-8.7001652E-002	-9.636898572828508E-004	2.000000000000000E+000	-5.5793618E-005	8.3842608E-008
2	0	0	0	1	2.808555929049908E+002	-9.0190284E-002	-9.0318881E-002	-9.778562501285785E-004	2.000000000000000E+000	-5.5861110E-005	8.8318885E-008
2	0	0	1	1	2.809221929033083E+002	-9.3520127E-002	-9.3659729E-002	-9.934271041961429E-004	2.000000000000000E+000	-5.5929602E-005	9.3044115E-008
2	0	0	0	1	2.809887929016259E+002	-9.6848860E-002	-9.6994415E-002	-1.007839905320702E-003	2.000000000000000E+000	-5.5999120E-005	9.7754842E-008
2	0	0	1	1	2.810553928999434E+002	-1.0018092E-001	-1.0032496E-001	-1.024523463174158E-003	2.000000000000000E+000	-5.6069686E-005	1.0278527E-007
2	0	0	1	1	2.811221928982559E+002	-1.0351965E-001	-1.0369138E-001	-1.041342002356831E-003	2.000000000000000E+000	-5.6141547E-005	1.0797819E-007
2	0	0	0	1	2.811887928965734E+002	-1.0684949E-001	-1.0699856E-001	-1.058317072223761E-003	2.000000000000000E+000	-5.6214325E-005	1.1323841E-007
2	0	0	1	1	2.812553928948910E+002	-1.1018044E-001	-1.1031972E-001	-1.076352435412719E-003	2.000000000000000E+000	-5.6288303E-005	1.1874290E-007
2	0	0	0	1	2.813219928932085E+002	-1.1350917E-001	-1.1364087E-001	-1.096162249016948E-003	2.000000000000000E+000	-5.6363562E-005	1.2456884E-007
2	0	0	0	1	2.813886928915235E+002	-1.1684568E-001	-1.1699144E-001	-1.117432748837669E-003	2.000000000000000E+000	-5.6440324E-005	1.3073006E-007
2	0	0	1	1	2.814553928898385E+002	-1.2017997E-001	-1.2032435E-001	-1.139469609956801E-003	2.000000000000000E+000	-5.6518544E-005	1.3710594E-007
2	0	0	0	1	2.815219928881561E+002	-1.2350980E-001	-1.2365805E-001	-1.164667715410767E-003	2.000000000000000E+000	-5.6598201E-005	1.4402055E-007
2	0	0	1	1	2.815885928864736E+002	-1.2684076E-001	-1.2699328E-001	-1.191474907826843E-003	2.000000000000000E+000	-5.6679626E-005	1.5130931E-007
2	0	0	0	1	2.816551928847912E+002	-1.3016950E-001	-1.3033266E-001	-1.220144690161526E-003	2.000000000000000E+000	-5.6762939E-005	1.5902471E-007
2	0	0	0	1	2.817218928831062E+002	-1.3350488E-001	-1.3365202E-001	-1.251838252114851E-003	2.000000000000000E+000	-5.6848352E-005	1.6731070E-007
2	0	0	1	1	2.817885928814212E+002	-1.3684028E-001	-1.3700241E-001	-1.286972509691058E-003	2.000000000000000E+000	-5.6936020E-005	1.7631834E-007
2	0	0	0	1	2.818551928797388E+002	-1.4016902E-001	-1.4033543E-001	-1.326264056279093E-003	2.000000000000000E+000	-5.7026064E-005	1.8612184E-007
2	0	0	1	1	2.819217928780563E+002	-1.4350107E-001	-1.4366731E-001	-1.368169656799898E-003	2.000000000000000E+000	-5.7118810E-005	1.9656126E-007
2	0	0	0	1	2.819883928763738E+002	-1.4682980E-001	-1.4701250E-001	-1.415673274081330E-003	2.000000000000000E+000	-5.7214536E-005	2.0812168E-007
2	0	0	0	1	2.820550928746889E+002	-1.5016410E-001	-1.5031107E-001	-1.468983789187840E-003	2.000000000000000E+000	-5.7313770E-005	2.2080452E-007
2	0	0	1	1	2.821217928730039E+002	-1.5350060E-001	-1.5366314E-001	-1.526495277908286E-003	2.000000000000000E+000	-5.7416779E-005	2.3456606E-007
2	0	0	0	1	2.821883928713214E+002	-1.5682933E-001	-1.5697691E-001	-1.592746523439346E-003	2.000000000000000E+000	-5.7523768E-005	2.5002441E-007
2	0	0	1	1	2.822549928696390E+002	-1.6016029E-001	-1.6033128E-001	-1.664326055248548E-003	2.000000000000000E+000	-5.7635414E-005	2.6684353E-007
2	0	0	0	1	2.823215928679565E+002	-1.6349013E-001	-1.6367896E-001	-1.744054908023283E-003	2.000000000000000E+000	-5.7752099E-005	2.8546509E-007
2	0	0	0	1	2.823882928662715E+002	-1.6682440E-001	-1.6701138E-001	-1.831928922734795E-003	2.000000000000000E+000	-5.7874542E-005	3.0595297E-007
2	0	0	1	1	2.824549928645865E+002	-1.7016093E-001	-1.7034777E-001	-1.926637814238005E-003	2.000000000000000E+000	-5.8003123E-005	3.2819844E-007
2	0	0	0	1	2.825215928629041E+002	-1.7348966E-001	-1.7367658E-001	-2.028854613965066E-003	2.000000000000000E+000	-5.8138074E-005	3.5236454E-007
2	0	0	1	1	2.825881928612216E+002	-1.7681950E-001	-1.7698817E-001	-2.138421938439397E-003	2.000000000000000E+000	-5.8280075E-005	3.7847539E-007
2	0	0	0	1	2.826547928595392E+002	-1.8015043E-001	-1.8034357E-001	-2.256120609541092E-003	2.000000000000000E+000	-5.8429676E-005	4.0687684E-007
2	0	0	0	1	2.827215928578516E+002	-1.8348916E-001	-1.8369417E-001	-2.376679756676992E-003	2.000000000000000E+000	-5.8587728E-005	4.3658221E-007
2	0	0	1	1	2.827881928561692E+002	-1.8682124E-001	-1.8702553E-001	-2.498834618158460E-003	2.000000000000000E+000	-5.8753420E-005	4.6734587E-007
2	0	0	0	1	2.828547928544867E+002	-1.9014995E-001	-1.9035438E-001	-2.621771849271863E-003	2.000000000000000E+000	-5.8927257E-005	4.9906572E-007
2	0	0	1	1	2.829213928528043E+002	-1.9347869E-001	-1.9366191E-001	-2.738583387881134E-003	2.000000000000000E+000	-5.9109072E-005	5.3035927E-007
2	0	0	0	1	2.829879928511218E+002	-1.9681077E-001	-1.9699135E-001	-2.848893870405669E-003	2.000000000000000E+000	-5.9298462E-005	5.6120746E-007
2	0	0	0	1	2.830547928494343E+002	-2.0014951E-001	-2.0032212E-001	-2.951024843042261E-003	2.000000000000000E+000	-5.9495513E-005	5.9115558E-007
2	0	0	1	1	2.831213928477518E+002	-2.0348042E-001	-2.0367107E-001	-3.037437273581658E-003	2.000000000000000E+000	-5.9698279E-005	6.1863807E-007
2	0	0	0	1	2.831879928460694E+002	-2.0681027E-001	-2.0698918E-001	-3.111664191983305E-003	2.000000000000000E+000	-5.9906328E-005	6.4408084E-007
2	0	0	1	1	2.832545928443869E+002	-2.1013899E-001	-2.1029961E-001	-3.163526429044806E-003	2.000000000000000E+000	-6.0118575E-005	6.6528838E-007
2	0	0	1	1	2.833212928427020E+002	-2.1347551E-001	-2.1368833E-001	-3.204176086744184E-003	2.000000000000000E+000	-6.0334263E-005	6.8469501E-007
2	0	0	0	1	2.833879928410170E+002	-2.1680979E-001	-2.1701966E-001	-3.224354820415498E-003	2.000000000000000E+000	-6.0551836E-005	6.9974840E-007
2	0	0	1	1	2.834545928393345E+002	-2.2013964E-001	-2.2033751E-001	-3.235206771087476E-003	2.000000000000000E+000	-6.0770108E-005	7.1283739E-007
2	0	0	0	1	2.835211928376521E+002	-2.2347060E-001	-2.2367769E-001	-3.230387994202302E-003	2.000000000000000E+000	-6.0988576E-005	7.2256574E-007
2	0	0	1	1	2.835877928359696E+002	-2.2679932E-001	-2.2701064E-001	-3.220997124482435E-003	2.000000000000000E+000	-6.1206512E-005	7.3120060E-007
2	0	0	1	1	2.836544928342846E+002	-2.3013583E-001	-2.3032445E-001	-3.198666668172929E-003	2.000000000000000E+000	-6.1423656E-005	7.3673112E-007
2	0	0	0	1	2.837211928325996E+002	-2.3347011E-001	-2.3365329E-001	-3.173446599146805E-003	2.000000000000000E+000	-6.1639235E-005	7.4148625E-007
2	0	0	1	1	2.837877928309172E+002	-2.3679887E-001	-2.3698062E-001	-3.145836173176750E-003	2.000000000000000E+000	-6.1852697E-005	7.4550218E-007
2	0	0	0	1	2.838543928292347E+002	-2.4013090E-001	-2.4031256E-001	-3.116259488013605E-003	2.000000000000000E+000	-6.2064304E-005	7.4887629E-007
2	0	0	1	1	2.839209928275523E+002	-2.4345963E-001	-2.4365805E-001	-3.087963393803069E-003	2.000000000000000E+000	-6.2273946E-005	7.5240712E-007
2	0	0	1	1	2.839876928258673E+002	-2.4679501E-001	-2.4697308E-001	-3.058929589098057E-003	2.000000000000000E+000	-6.2481995E-005	7.5547325E-007
2	0	0	0	1	2.840543928241823E+002	-2.5013044E-001	-2.5031939E-001	-3.025566514570414E-003	2.000000000000000E+000	-6.2688021E-005	7.5735795E-007
2	0	0	1	1	2.841209928224998E+002	-2.5345916E-001	-2.5365213E-001	-3.001177664733319E-003	2.000000000000000E+000	-6.2891828E-005	7.6125508E-007
2	0	0	0	1	2.841875928208174E+002	-2.5679010E-001	-2.5697690E-001	-2.973109629964665E-003	2.000000000000000E+000	-6.3093772E-005	7.6402051E-007
2	0	0	1	1	2.842541928191349E+002	-2.6011994E-001	-2.6028425E-001	-2.947018531267859E-003	2.000000000000000E+000	-6.3293934E-005	7.6706249E-007
2	0	0	1	1	2.843208928174499E+002	-2.6345420E-001	-2.6362893E-001	-2.923817892457062E-003	2.000000000000000E+000	-6.3492778E-005	7.7080296E-007
2	0	0	0	1	2.843875928157649E+002	-2.6679075E-001	-2.6696700E-001	-2.902266043910126E-003	2.000000000000000E+000	-6.3690160E-005	7.7480928E-007
2	0	0	1	1	2.844541928140825E+002	-2.7011949E-001	-2.7028593E-001	-2.880611811046249E-003	2.000000000000000E+000	-6.3885760E-005	7.7858886E-007
2	0	0	0	1	2.845207928124000E+002	-2.7345043E-001	-2.7363873E-001	-2.863054269005558E-003	2.000000000000000E+000	-6.4080035E-005	7.8344254E-007
2	0	0	1	1	2.845873928107176E+002	-2.7678025E-001	-2.7693775E-001	-2.844745832629690E-003	2.000000000000000E+000	-6.4273139E-005	7.8781750E-007
2	0	0	1	1	2.846541928090301E+002	-2.8011900E-001	-2.8027713E-001	-2.828520803583853E-003	2.000000000000000E+000	-6.4465617E-005	7.9276970E-007
2	0	0	0	1	2.847207928073476E+002	-2.8345108E-001	-2.8361174E-001	-2.814443243714021E-003	2.000000000000000E+000	-6.4656531E-005	7.9820916E-007
2	0	0	1	1	2.847873928056651E+002	-2.8677976E-001	-2.8694415E-001	-2.801414719204302E-003	2.000000000000000E+000	-6.4846565E-005	8.0384956E-007
2	0	0	0	1	2.848539928039827E+002	-2.9010963E-001	-2.9028055E-001	-2.789640180264522E-003	2.000000000000000E+000	-6.5035776E-005	8.0977827E-007
2	0	0	1	1	2.849205928023002E+002	-2.9344061E-001	-2.9361227E-001	-2.778519662674419E-003	2.000000000000000E+000	-6.5224209E-005	8.1580748E-007
2	0	0	1	1	2.849873928006127E+002	-2.9677936E-001	-2.9697943E-001	-2.769535654257747E-003	2.000000000000000E+000	-6.5412554E-005	8.2249511E-007
2	0	0	0	1	2.850539927989303E+002	-3.0011025E-001	-3.0031317E-001	-2.760665611093074E-003	2.000000000000000E+000	-6.5599779E-005	8.2906428E-007
2	0	0	1	1	2.851205927972478E+002	-3.0344012E-001	-3.0363926E-001	-2.752603373455037E-003	2.000000000000000E+000	-6.5786437E-005	8.3579846E-007
2	0	0	0	1	2.851871927955654E+002	-3.0676880E-001	-3.0698323E-001	-2.746466353592020E-003	2.000000000000000E+000	-6.5972628E-005	8.4311910E-007
2	0	0	1	1	2.852537927938829E+002	-3.1010091E-001	-3.1030446E-001	-2.741310962274581E-003	2.000000000000000E+000	-6.6158427E-005	8.5064102E-007
2	0	0	1	1	2.853205927921954E+002	-3.1343964E-001	-3.1364045E-001	-2.736624046649511E-003	2.000000000000000E+000	-6.6344423E-005	8.5831596E-007
2	0	0	0	1	2.853871927905129E+002	-3.1677061E-001	-3.1697133E-001	-2.733968683983049E-003	2.000000000000000E+000	-6.6529617E-005	8.6658969E-007
2	0	0	1	1	2.854537927888305E+002	-3.2010043E-001	-3.2029250E-001	-2.730667502163428E-003	2.000000000000000E+000	-6.6714601E-005	8.7461234E-007
2	0	0	0	1	2.855203927871480E+002	-3.2342920E-001	-3.2360154E-001	-2.727937660468408E-003	2.000000000000000E+000	-6.6899396E-005	8.8276482E-007
2	0	0	0	1	2.855870927854630E+002	-3.2676563E-001	-3.2694852E-001	-2.726486663426481E-003	2.000000000000000E+000	-6.7084373E-005	8.9142077E-007
2	0	0	1	1	2.856537927837780E+002	-3.3009994E-001	-3.3028635E-001	-2.727372658722492E-003	2.000000000000000E+000	-6.7269313E-005	9.0081397E-007
2	0	0	0	1	2.857203927820956E+002	-3.3342978E-001	-3.3363178E-001	-2.727785334596909E-003	2.000000000000000E+000	-6.7454006E-005	9.1007587E-007
2	0	0	1	1	2.857869927804131E+002	-3.3676070E-001	-3.3696619E-001	-2.727906963479371E-003	2.000000000000000E+000	-6.7638692E-005	9.1921243E-007
2	0	0	0	1	2.858535927787307E+002	-3.4008947E-001	-3.4032127E-001	-2.730473093777878E-003	2.000000000000000E+000	-6.7823537E-005	9.2923807E-007
2	0	0	0	1	2.859202927770457E+002	-3.4342489E-001	-3.4365588E-001	-2.731677728882095E-003	2.000000000000000E+000	-6.8008754E-005	9.3875713E-007
2	0	0	1	1	2.859869927753607E+002	-3.4676027E-001	-3.4698266E-001	-2.734388787991995E-003	2.000000000000000E+000	-6.8194087E-005	9.4878550E-007
2	0	0	0	1	2.860535927736782E+002	-3.5008901E-001	-3.5033017E-001	-2.737025472696686E-003	2.000000000000000E+000	-6.8379341E-005	9.5886264E-007
2	0	0	1	1	2.861201927719958E+002	-3.5342106E-001	-3.5367376E-001	-2.741521143436648E-003	2.000000000000000E+000	-6.8564812E-005	9.6960412E-007
2	0	0	0	1	2.861867927703133E+002	-3.5674980E-001	-3.5698259E-001	-2.745130216557416E-003	2.000000000000000E+000	-6.8750538E-005	9.7996372E-007
2	0	0	0	1	2.862534927686283E+002	-3.6008406E-001	-3.6031207E-001	-2.749088529725698E-003	2.000000000000000E+000	-6.8936788E-005	9.9052977E-007
2	0	0	1	1	2.863201927669434E+002	-3.6342058E-001	-3.6364034E-001	-2.753592271880295E-003	2.000000000000000E+000	-6.9123322E-005	1.0013172E-006
2	0	0	0	1	2.863867927652609E+002	-3.6674929E-001	-3.6696494E-001	-2.758004995527918E-003	2.000000000000000E+000	-6.9309921E-005	1.0120912E-006
2	0	0	1	1	2.864533927635784E+002	-3.7008026E-001	-3.7027758E-001	-2.765104551386496E-003	2.000000000000000E+000	-6.9496884E-005	1.0238563E-006
2	0	0	0	1	2.865199927618960E+002	-3.7341011E-001	-3.7362647E-001	-2.769876677567458E-003	2.000000000000000E+000	-6.9684247E-005	1.0348992E-006
2	0	0	0	1	2.865866927602110E+002	-3.7674436E-001	-3.7696743E-001	-2.776443428654095E-003	2.000000000000000E+000	-6.9872272E-005	1.0466288E-006
2	0	0	1	1	2.866533927585260E+002	-3.8008085E-001	-3.8029340E-001	-2.783341342797617E-003	2.000000000000000E+000	-7.0060742E-005	1.0584863E-006
2	0	0	0	1	2.867199927568436E+002	-3.8340959E-001	-3.8365629E-001	-2.790760728159340E-003	2.000000000000000E+000	-7.0249422E-005	1.0706929E-006
2	0	0	1	1	2.867865927551611E+002	-3.8673946E-001	-3.8696632E-001	-2.797503759173037E-003	2.000000000000000E+000	-7.0438553E-005	1.0825397E-006
2	0	0	0	1	2.868531927534787E+002	-3.9007041E-001	-3.9031461E-001	-2.805308736825884E-003	2.000000000000000E+000	-7.0628157E-005	1.0949529E-006
2	0	0	0	1	2.869199927517911E+002	-3.9340913E-001	-3.9365008E-001	-2.812737955597715E-003	2.000000000000000E+000	-7.0818845E-005	1.1072345E-006
2	0	0	1	1	2.869865927501087E+002	-3.9674124E-001	-3.9698359E-001	-2.822306807278671E-003	2.000000000000000E+000	-7.1009519E-005	1.1204095E-006
2	0	0	0	1	2.870531927484262E+002	-4.0006995E-001	-4.0030217E-001	-2.829829787824770E-003	2.000000000000000E+000	-7.1200753E-005	1.1327870E-006
2	0	0	1	1	2.871197927467438E+002	-4.0339869E-001	-4.0361950E-001	-2.838138493620224E-003	2.000000000000000E+000	-7.1392533E-005	1.1455280E-006
2	0	0	0	1	2.871863927450613E+002	-4.0673071E-001	-4.0696234E-001	-2.847454001973473E-003	2.000000000000000E+000	-7.1584909E-005	1.1588065E-006
2	0	0	0	1	2.872531927433738E+002	-4.1006944E-001	-4.1030261E-001	-2.856891735306982E-003	2.000000000000000E+000	-7.1778501E-005	1.1721901E-006
2	0	0	1	1	2.873197927416913E+002	-4.1340041E-001	-4.1362521E-001	-2.867511022047003E-003	2.000000000000000E+000	-7.1972179E-005	1.1860749E-006
2	0	0	0	1	2.873863927400089E+002	-4.1673025E-001	-4.1697338E-001	-2.878023521043355E-003	2.000000000000000E+000	-7.2166564E-005	1.2000592E-006
2	0	0	1	1	2.874529927383264E+002	-4.2005900E-001	-4.2029604E-001	-2.887877357985683E-003	2.000000000000000E+000	-7.2361632E-005	1.2137634E-006
2	0	0	0	1	2.875195927366440E+002	-4.2339104E-001	-4.2362013E-001	-2.900295262947182E-003	2.000000000000000E+000	-7.2557428E-005	1.2286234E-006
2	0	0	0	1	2.875863927349565E+002	-4.2672980E-001	-4.2695206E-001	-2.910993616092560E-003	2.000000000000000E+000	-7.2754570E-005	1.2428548E-006
2	0	0	1	1	2.876529927332740E+002	-4.3005961E-001	-4.3026775E-001	-2.922665324160519E-003	2.000000000000000E+000	-7.2951887E-005	1.2575287E-006
2	0	0	0	1	2.877195927315915E+002	-4.3339059E-001	-4.3359995E-001	-2.935776786012513E-003	2.000000000000000E+000	-7.3150019E-005	1.2729527E-006
2	0	0	1	1	2.877861927299091E+002	-4.3671930E-001	-4.3694177E-001	-2.948495496784352E-003	2.000000000000000E+000	-7.3349038E-005	1.2883208E-006
2	0	0	1	1	2.878528927282241E+002	-4.4005579E-001	-4.4027409E-001	-2.961713963696988E-003	2.000000000000000E+000	-7.3549236E-005	1.3039660E-006
2	0	0	0	1	2.879195927265391E+002	-4.4339013E-001	-4.4360128E-001	-2.974743999870900E-003	2.000000000000000E+000	-7.3750314E-005	1.3196003E-006
2	0	0	1	1	2.879861927248567E+002	-4.4671884E-001	-4.4693676E-001	-2.988625129648745E-003	2.000000000000000E+000	-7.3951967E-005	1.3357264E-006
2	0	0	0	1	2.880527927231742E+002	-4.5005089E-001	-4.5026469E-001	-3.004001036183264E-003	2.000000000000000E+000	-7.4154588E-005	1.3525956E-006
2	0	0	1	1	2.881193927214917E+002	-4.5337960E-001	-4.5358875E-001	-3.018435282338302E-003	2.000000000000000E+000	-7.4358191E-005	1.3691283E-006
2	0	0	1	1	2.881860927198068E+002	-4.5671499E-001	-4.5693335E-001	-3.034401612087519E-003	2.000000000000000E+000	-7.4563170E-005	1.3865193E-006
2	0	0	0	1	2.882527927181218E+002	-4.6005040E-001	-4.6027526E-001	-3.051404983773404E-003	2.000000000000000E+000	-7.4769232E-005	1.4044863E-006
2	0	0	1	1	2.883193927164393E+002	-4.6337914E-001	-4.6358073E-001	-3.066918265579775E-003	2.000000000000000E+000	-7.4976066E-005	1.4217642E-006
2	0	0	0	1	2.883859927147569E+002	-4.6671119E-001	-4.6692321E-001	-3.085923294764321E-003	2.000000000000000E+000	-7.5184078E-005	1.4408892E-006
2	0	0	1	1	2.884525927130744E+002	-4.7003987E-001	-4.7026363E-001	-3.104550866856529E-003	2.000000000000000E+000	-7.5393313E-005	1.4599574E-006
2	0	0	1	1	2.885192927113894E+002	-4.7337416E-001	-4.7359928E-001	-3.121939562942586E-003	2.000000000000000E+000	-7.5604061E-005	1.4785484E-006
2	0	0	0	1	2.885859927097044E+002	-4.7671071E-001	-4.7693455E-001	-3.142682256619719E-003	2.000000000000000E+000	-7.5816090E-005	1.4988537E-006
2	0	0	1	1	2.886525927080220E+002	-4.8003945E-001	-4.8026478E-001	-3.162322482753908E-003	2.000000000000000E+000	-7.6029130E-005	1.5187521E-006
2	0	0	0	1	2.887191927063395E+002	-4.8337039E-001	-4.8361355E-001	-3.183273386872744E-003	2.000000000000000E+000	-7.6243501E-005	1.5394742E-006
2	0	0	1	1	2.887857927046571E+002	-4.8670027E-001	-4.8691756E-001	-3.204154194697127E-003	2.000000000000000E+000	-7.6459277E-005	1.5601589E-006
2	0	0	1	1	2.888525927029696E+002	-4.9003899E-001	-4.9024251E-001	-3.225328758960228E-003	2.000000000000000E+000	-7.6677119E-005	1.5811933E-006
2	0	0	0	1	2.889191927012871E+002	-4.9337104E-001	-4.9357587E-001	-3.248110338322049E-003	2.000000000000000E+000	-7.6895820E-005	1.6031889E-006
2	0	0	1	1	2.889857926996046E+002	-4.9669975E-001	-4.9690509E-001	-3.273305737438899E-003	2.000000000000000E+000	-7.7116078E-005	1.6265222E-006
2	0	0	0	1	2.890523926979222E+002	-5.0002962E-001	-5.0024694E-001	-3.297543324574374E-003	2.000000000000000E+000	-7.7337987E-005	1.6495860E-006
2	0	0	1	1	2.891189926962397E+002	-5.0336057E-001	-5.0358641E-001	-3.324071352469878E-003	2.000000000000000E+000	-7.7561599E-005	1.6739572E-006
2	0	0	1	1	2.891857926945522E+002	-5.0669926E-001	-5.0691032E-001	-3.348713487805561E-003	2.000000000000000E+000	-7.7787568E-005	1.6974974E-006
2	0	0	0	1	2.892523926928698E+002	-5.1003027E-001	-5.1026887E-001	-3.377512414738520E-003	2.000000000000000E+000	-7.8014680E-005	1.7234395E-006
2	0	0	1	1	2.893189926911873E+002	-5.1336008E-001	-5.1356202E-001	-3.405774598696766E-003	2.000000000000000E+000	-7.8243662E-005	1.7490765E-006
2	0	0	0	1	2.893855926895048E+002	-5.1668882E-001	-5.1688105E-001	-3.434607897983930E-003	2.000000000000000E+000	-7.8474499E-005	1.7752837E-006
2	0	0	1	1	2.894521926878224E+002	-5.2002090E-001	-5.2023047E-001	-3.465361432877769E-003	2.000000000000000E+000	-7.8707351E-005	1.8027866E-006
2	0	0	1	1	2.895189926861349E+002	-5.2335966E-001	-5.2357244E-001	-3.494800123945215E-003	2.000000000000000E+000	-7.8942969E-005	1.8297810E-006
2	0	0	0	1	2.895855926844524E+002	-5.2669054E-001	-5.2689904E-001	-3.528737632194995E-003	2.000000000000000E+000	-7.9180019E-005	1.8592884E-006
2	0	0	1	1	2.896521926827700E+002	-5.3002042E-001	-5.3023612E-001	-3.561181007573227E-003	2.000000000000000E+000	-7.9419253E-005	1.8882669E-006
2	0	0	0	1	2.897187926810875E+002	-5.3334916E-001	-5.3355306E-001	-3.595485931435091E-003	2.000000000000000E+000	-7.9660713E-005	1.9183826E-006
2	0	0	0	1	2.897854926794025E+002	-5.3668565E-001	-5.3688276E-001	-3.631327821941938E-003	2.000000000000000E+000	-7.9904843E-005	1.9495974E-006
2	0	0	1	1	2.898521926777175E+002	-5.4001987E-001	-5.4018903E-001	-3.667758366060446E-003	2.000000000000000E+000	-8.0151403E-005	1.9812828E-006
2	0	0	0	1	2.899187926760351E+002	-5.4334980E-001	-5.4354638E-001	-3.707010337340659E-003	2.000000000000000E+000	-8.0400125E-005	2.0149321E-006
2	0	0	1	1	2.899853926743526E+002	-5.4668069E-001	-5.4687738E-001	-3.746085889662965E-003	2.000000000000000E+000	-8.0651458E-005	2.0486495E-006
2	0	0	0	1	2.900519926726702E+002	-5.5000943E-001	-5.5020583E-001	-3.787119456641123E-003	2.000000000000000E+000	-8.0905447E-005	2.0836951E-006
2	0	0	0	1	2.901186926709852E+002	-5.5334485E-001	-5.5355084E-001	-3.830029800655228E-003	2.000000000000000E+000	-8.1162616E-005	2.1201163E-006
2	0	0	1	1	2.901853926693002E+002	-5.5668026E-001	-5.5689812E-001	-3.872216030261205E-003	2.000000000000000E+000	-8.1422651E-005	2.1564299E-006
2	0	0	0	1	2.902519926676177E+002	-5.6000894E-001	-5.6023854E-001	-3.916738951016123E-003	2.000000000000000E+000	-8.1685153E-005	2.1943081E-006
2	0	0	1	1	2.903185926659353E+002	-5.6334102E-001	-5.6357050E-001	-3.962766953898321E-003	2.000000000000000E+000	-8.1950639E-005	2.2332986E-006
2	0	0	0	1	2.903851926642528E+002	-5.6666976E-001	-5.6689942E-001	-4.009575119138653E-003	2.000000000000000E+000	-8.2219281E-005	2.2730258E-006
2	0	0	0	1	2.904518926625678E+002	-5.7000506E-001	-5.7020962E-001	-4.057635593383666E-003	2.000000000000000E+000	-8.2491446E-005	2.3137029E-006
2	0	0	1	1	2.905185926608829E+002	-5.7334059E-001	-5.7355618E-001	-4.107378337243200E-003	2.000000000000000E+000	-8.2766885E-005	2.3558123E-006
2	0	0	0	1	2.905851926592004E+002	-5.7666928E-001	-5.7688648E-001	-4.156185378803239E-003	2.000000000000000E+000	-8.3045248E-005	2.3976472E-006
2	0	0	1	1	2.906517926575179E+002	-5.8000028E-001	-5.8021075E-001	-4.208375908219000E-003	2.000000000000000E+000	-8.3327046E-005	2.4417450E-006
2	0	0	0	1	2.907183926558355E+002	-5.8333009E-001	-5.8353758E-001	-4.263034318779876E-003	2.000000000000000E+000	-8.3612365E-005	2.4876408E-006
2	0	0	0	1	2.907850926541505E+002	-5.8666432E-001	-5.8687669E-001	-4.317030181324677E-003	2.000000000000000E+000	-8.3901738E-005	2.5335644E-006
2	0	0	1	1	2.908517926524655E+002	-5.9000087E-001	-5.9022230E-001	-4.373879019204413E-003	2.000000000000000E+000	-8.4194755E-005	2.5815609E-006
2	0	0	0	1	2.909183926507831E+002	-5.9332961E-001	-5.9354675E-001	-4.429834182566650E-003	2.000000000000000E+000	-8.4491112E-005	2.6293137E-006
2	0	0	1	1	2.909849926491006E+002	-5.9665942E-001	-5.9687644E-001	-4.488645496575031E-003	2.000000000000000E+000	-8.4791347E-005	2.6791668E-006
2	0	0	0	1	2.910315926479234E+002	-5.9899062E-001	-5.9918737E-001	-4.529941273750282E-003	2.000000000000000E+000	-8.5003368E-005	2.7142837E-006
2	0	0	0	1	2.910483926474990E+002	-5.9982693E-001	-6.0004652E-001	-4.546872779933943E-003	2.000000000000000E+000	-8.5080370E-005	2.7283352E-006