EC-Lab ASCII FILE
Nb header lines : 53                          

Cyclic Voltammetry

Run on channel : 1 (SN 0696)
User : 
Electrode connection : standard
Ewe ctrl range : min = -10.00 V, max = 10.00 V
Ewe,I filtering : 50 kHz
Channel : Grounded
Acquisition started on : 05/17/2017 12:39:23
Saved on :
	File : 100 uM MB 10mM PB  second ito_01_CV_C01.mpr
	Directory : \\userfs\st659\w2k\EC-Lab\Data\ITO Characterisation 17-5-17\
	Host : 144.32.136.43
Device : SP-300 (SN 0182)
Address : USB
EC-Lab for windows v10.44 (software)
Internet server v10.44 (firmware)
Command interpretor v10.44 (firmware)
Electrode material : 
Initial state : 
Electrolyte : 
Comments : 
Cable : standard
Electrode surface area : 0.001 cm²
Characteristic mass : 0.001 g
Equivalent Weight : 0.000 g/eq.
Density : 0.000 g/cm3
Ei (V)              0.000               
vs.                 Eoc                 
dE/dt               20.000              
dE/dt unit          mV/s                
E1 (V)              0.100               
vs.                 Ref                 
Step percent        50                  
N                   10                  
E range min (V)     -10.000             
E range max (V)     10.000              
I Range             Auto                
I Range min         Unset               
I Range max         Unset               
I Range init        Unset               
Bandwidth           8                   
E2 (V)              -0.600              
vs.                 Ref                 
nc cycles           2                   
Reverse Scan        1                   
Ef (V)              0.000               
vs.                 Eoc                 

mode	ox/red	error	control changes	counter inc.	time/s	control/V	Ewe/V	<I>/mA	cycle number	(Q-Qo)/C	P/W
2	1	0	0	1	5.190619868873910E+001	-5.9832716E-001	-5.9851837E-001	-4.731604211787116E-003	2.000000000000000E+000	-1.0527419E-004	2.8319521E-006
2	1	0	1	1	5.207279868453043E+001	-5.9499514E-001	-5.9520262E-001	-4.567434578308091E-003	2.000000000000000E+000	-1.0604430E-004	2.7185490E-006
2	1	0	0	1	5.223939868032176E+001	-5.9166306E-001	-5.9186172E-001	-4.430001089045035E-003	2.000000000000000E+000	-1.0678958E-004	2.6219482E-006
2	1	0	1	1	5.240599867611309E+001	-5.8833110E-001	-5.8854240E-001	-4.303967219516085E-003	2.000000000000000E+000	-1.0751324E-004	2.5330671E-006
2	1	0	0	1	5.257259867190442E+001	-5.8499897E-001	-5.8520240E-001	-4.196121746011840E-003	2.000000000000000E+000	-1.0821749E-004	2.4555804E-006
2	1	0	1	1	5.273919866769575E+001	-5.8166730E-001	-5.8186263E-001	-4.097645099104361E-003	2.000000000000000E+000	-1.0890471E-004	2.3842665E-006
2	1	0	0	1	5.290579866348708E+001	-5.7833534E-001	-5.7853699E-001	-4.003705329444981E-003	2.000000000000000E+000	-1.0957560E-004	2.3162916E-006
2	1	0	1	1	5.307239865927841E+001	-5.7500327E-001	-5.7520521E-001	-3.915484411162129E-003	2.000000000000000E+000	-1.1023125E-004	2.2522070E-006
2	1	0	0	1	5.323899865506974E+001	-5.7167113E-001	-5.7185358E-001	-3.838609706940010E-003	2.000000000000000E+000	-1.1087326E-004	2.1951228E-006
2	1	0	1	1	5.340559865086107E+001	-5.6833911E-001	-5.6854594E-001	-3.758601797031844E-003	2.000000000000000E+000	-1.1150222E-004	2.1369378E-006
2	1	0	0	1	5.357219864665240E+001	-5.6500703E-001	-5.6520730E-001	-3.695747656941244E-003	2.000000000000000E+000	-1.1211897E-004	2.0888635E-006
2	1	0	1	1	5.373879864244373E+001	-5.6167537E-001	-5.6187731E-001	-3.622572316552497E-003	2.000000000000000E+000	-1.1272455E-004	2.0354412E-006
2	1	0	0	1	5.390539863823506E+001	-5.5834335E-001	-5.5855173E-001	-3.551452061808270E-003	2.000000000000000E+000	-1.1331841E-004	1.9836698E-006
2	1	0	1	1	5.407199863402639E+001	-5.5501133E-001	-5.5522281E-001	-3.484758727649306E-003	2.000000000000000E+000	-1.1390077E-004	1.9348174E-006
2	1	0	0	1	5.423859862981772E+001	-5.5167919E-001	-5.5185246E-001	-3.430375694092443E-003	2.000000000000000E+000	-1.1447288E-004	1.8930613E-006
2	1	0	1	1	5.440519862560905E+001	-5.4834718E-001	-5.4853433E-001	-3.373367003545055E-003	2.000000000000000E+000	-1.1503579E-004	1.8504077E-006
2	1	0	0	1	5.457179862140038E+001	-5.4501516E-001	-5.4520595E-001	-3.312165078492510E-003	2.000000000000000E+000	-1.1558902E-004	1.8058121E-006
2	1	0	1	1	5.473839861719171E+001	-5.4168344E-001	-5.4185289E-001	-3.265715773304659E-003	2.000000000000000E+000	-1.1613349E-004	1.7695376E-006
2	1	0	0	1	5.490499861298304E+001	-5.3835142E-001	-5.3853589E-001	-3.215021153400020E-003	2.000000000000000E+000	-1.1666962E-004	1.7314043E-006
2	1	0	1	1	5.507159860877437E+001	-5.3501934E-001	-5.3521413E-001	-3.167112340409036E-003	2.000000000000000E+000	-1.1719746E-004	1.6950833E-006
2	1	0	0	1	5.523819860456570E+001	-5.3168732E-001	-5.3187227E-001	-3.121110177952337E-003	2.000000000000000E+000	-1.1771749E-004	1.6600320E-006
2	1	0	1	1	5.540479860035703E+001	-5.2835524E-001	-5.2853650E-001	-3.072996580731024E-003	2.000000000000000E+000	-1.1822957E-004	1.6241909E-006
2	1	0	0	1	5.557139859614836E+001	-5.2502322E-001	-5.2522981E-001	-3.029815656968939E-003	2.000000000000000E+000	-1.1873437E-004	1.5913495E-006
2	1	0	1	1	5.573799859193969E+001	-5.2169114E-001	-5.2190363E-001	-2.988966680386656E-003	2.000000000000000E+000	-1.1923190E-004	1.5599526E-006
2	1	0	0	1	5.590459858773102E+001	-5.1835942E-001	-5.1856565E-001	-2.948256684019195E-003	2.000000000000000E+000	-1.1972270E-004	1.5288647E-006
2	1	0	1	1	5.607119858352235E+001	-5.1502746E-001	-5.1521611E-001	-2.911935734015880E-003	2.000000000000000E+000	-1.2020697E-004	1.5002762E-006
2	1	0	0	1	5.623779857931368E+001	-5.1169533E-001	-5.1189911E-001	-2.869723537866131E-003	2.000000000000000E+000	-1.2068481E-004	1.4690089E-006
2	1	0	1	1	5.640439857510501E+001	-5.0836331E-001	-5.0855440E-001	-2.836204221062837E-003	2.000000000000000E+000	-1.2115635E-004	1.4423641E-006
2	1	0	0	1	5.657099857089634E+001	-5.0503123E-001	-5.0520295E-001	-2.803979453787273E-003	2.000000000000000E+000	-1.2162213E-004	1.4165787E-006
2	1	0	1	1	5.673759856668767E+001	-5.0169921E-001	-5.0189155E-001	-2.767056991966811E-003	2.000000000000000E+000	-1.2208225E-004	1.3887625E-006
2	1	0	0	1	5.690419856247900E+001	-4.9836713E-001	-4.9855912E-001	-2.732678778576662E-003	2.000000000000000E+000	-1.2253638E-004	1.3624019E-006
2	1	0	0	1	5.707089855826780E+001	-4.9503323E-001	-4.9522382E-001	-2.697995943294819E-003	2.000000000000000E+000	-1.2298493E-004	1.3361118E-006
2	1	0	1	1	5.723749855405913E+001	-4.9170116E-001	-4.9189234E-001	-2.668495344361293E-003	2.000000000000000E+000	-1.2342793E-004	1.3126124E-006
2	1	0	0	1	5.740409854985046E+001	-4.8836914E-001	-4.8856083E-001	-2.635274403556757E-003	2.000000000000000E+000	-1.2386564E-004	1.2874918E-006
2	1	0	1	1	5.757069854564179E+001	-4.8503703E-001	-4.8521259E-001	-2.605246327460096E-003	2.000000000000000E+000	-1.2429833E-004	1.2640983E-006
2	1	0	0	1	5.773729854143312E+001	-4.8170495E-001	-4.8189157E-001	-2.576904068190021E-003	2.000000000000000E+000	-1.2472601E-004	1.2417884E-006
2	1	0	1	1	5.790389853722445E+001	-4.7837338E-001	-4.7855940E-001	-2.547243006540578E-003	2.000000000000000E+000	-1.2514868E-004	1.2190071E-006
2	1	0	0	1	5.807049853301578E+001	-4.7504130E-001	-4.7523552E-001	-2.514462030340250E-003	2.000000000000000E+000	-1.2556628E-004	1.1949617E-006
2	1	0	1	1	5.823709852880711E+001	-4.7170922E-001	-4.7190675E-001	-2.490526595158915E-003	2.000000000000000E+000	-1.2597925E-004	1.1752963E-006
2	1	0	0	1	5.840369852459844E+001	-4.6837717E-001	-4.6856129E-001	-2.462670995025659E-003	2.000000000000000E+000	-1.2638775E-004	1.1539123E-006
2	1	0	1	1	5.857029852038977E+001	-4.6504509E-001	-4.6518576E-001	-2.437183575389065E-003	2.000000000000000E+000	-1.2679178E-004	1.1337431E-006
2	1	0	0	1	5.873689851618110E+001	-4.6171302E-001	-4.6188709E-001	-2.410806454024299E-003	2.000000000000000E+000	-1.2719141E-004	1.1135204E-006
2	1	0	1	1	5.890349851197243E+001	-4.5838094E-001	-4.5855981E-001	-2.385562967180338E-003	2.000000000000000E+000	-1.2758678E-004	1.0939233E-006
2	1	0	0	1	5.907009850776376E+001	-4.5504934E-001	-4.5523384E-001	-2.362506190591425E-003	2.000000000000000E+000	-1.2797800E-004	1.0754927E-006
2	1	0	1	1	5.923669850355509E+001	-4.5171732E-001	-4.5188478E-001	-2.336621263858939E-003	2.000000000000000E+000	-1.2836509E-004	1.0558836E-006
2	1	0	0	1	5.940329849934642E+001	-4.4838518E-001	-4.4856727E-001	-2.314431319280226E-003	2.000000000000000E+000	-1.2874814E-004	1.0381782E-006
2	1	0	1	1	5.956989849513775E+001	-4.4505316E-001	-4.4522819E-001	-2.289148778277256E-003	2.000000000000000E+000	-1.2912734E-004	1.0191935E-006
2	1	0	0	1	5.973649849092908E+001	-4.4172108E-001	-4.4191045E-001	-2.266002637143650E-003	2.000000000000000E+000	-1.2950248E-004	1.0013703E-006
2	1	0	1	1	5.990309848672041E+001	-4.3838903E-001	-4.3857783E-001	-2.241955631124351E-003	2.000000000000000E+000	-1.2987366E-004	9.8327200E-007
2	1	0	0	1	6.006979848250921E+001	-4.3505523E-001	-4.3523598E-001	-2.218147770015510E-003	2.000000000000000E+000	-1.3024123E-004	9.6541771E-007
2	1	0	1	1	6.023639847830054E+001	-4.3172318E-001	-4.3190318E-001	-2.197394694056186E-003	2.000000000000000E+000	-1.3060476E-004	9.4906176E-007
2	1	0	0	1	6.040299847409187E+001	-4.2839113E-001	-4.2855918E-001	-2.173157233696581E-003	2.000000000000000E+000	-1.3096446E-004	9.3132650E-007
2	1	0	1	1	6.056959846988320E+001	-4.2505908E-001	-4.2525449E-001	-2.151307894244734E-003	2.000000000000000E+000	-1.3132047E-004	9.1485333E-007
2	1	0	0	1	6.073619846567453E+001	-4.2172700E-001	-4.2193019E-001	-2.131253162785784E-003	2.000000000000000E+000	-1.3167298E-004	8.9924004E-007
2	1	0	1	1	6.090279846146586E+001	-4.1839495E-001	-4.1858444E-001	-2.109696616783321E-003	2.000000000000000E+000	-1.3202202E-004	8.8308616E-007
2	1	0	0	1	6.106939845725719E+001	-4.1506284E-001	-4.1525212E-001	-2.089618273731431E-003	2.000000000000000E+000	-1.3236760E-004	8.6771843E-007
2	1	0	1	1	6.123599845304852E+001	-4.1173121E-001	-4.1190618E-001	-2.070786375314031E-003	2.000000000000000E+000	-1.3270993E-004	8.5296972E-007
2	1	0	0	1	6.140259844883985E+001	-4.0839922E-001	-4.0856946E-001	-2.051259581137551E-003	2.000000000000000E+000	-1.3304903E-004	8.3808203E-007
2	1	0	1	1	6.156919844463118E+001	-4.0506712E-001	-4.0524474E-001	-2.031499469324981E-003	2.000000000000000E+000	-1.3338494E-004	8.2325448E-007
2	1	0	0	1	6.173579844042251E+001	-4.0173501E-001	-4.0193251E-001	-2.011568945098925E-003	2.000000000000000E+000	-1.3371740E-004	8.0851493E-007
2	1	0	1	1	6.190239843621384E+001	-3.9840299E-001	-3.9858615E-001	-1.992611923355384E-003	2.000000000000000E+000	-1.3404674E-004	7.9422750E-007
2	1	0	0	1	6.206899843200517E+001	-3.9507094E-001	-3.9526615E-001	-1.975734048621875E-003	2.000000000000000E+000	-1.3437303E-004	7.8094081E-007
2	1	0	1	1	6.223559842779650E+001	-3.9173928E-001	-3.9193955E-001	-1.956879391767917E-003	2.000000000000000E+000	-1.3469627E-004	7.6697842E-007
2	1	0	0	1	6.240219842358783E+001	-3.8840723E-001	-3.8859522E-001	-1.936001757997394E-003	2.000000000000000E+000	-1.3501622E-004	7.5232106E-007
2	1	0	1	1	6.256879841937916E+001	-3.8507518E-001	-3.8528383E-001	-1.918004398592209E-003	2.000000000000000E+000	-1.3533297E-004	7.3897610E-007
2	1	0	0	1	6.273539841517049E+001	-3.8174313E-001	-3.8192263E-001	-1.900135041832861E-003	2.000000000000000E+000	-1.3564662E-004	7.2570458E-007
2	1	0	1	1	6.290199841096182E+001	-3.7841108E-001	-3.7858227E-001	-1.881380487372082E-003	2.000000000000000E+000	-1.3595722E-004	7.1225730E-007
2	1	0	0	1	6.306859840675315E+001	-3.7507898E-001	-3.7525514E-001	-1.863677828480344E-003	2.000000000000000E+000	-1.3626482E-004	6.9935470E-007
2	1	0	1	1	6.323519840254448E+001	-3.7174737E-001	-3.7191480E-001	-1.845195719987029E-003	2.000000000000000E+000	-1.3656945E-004	6.8625559E-007
2	1	0	0	1	6.340179839833581E+001	-3.6841530E-001	-3.6858293E-001	-1.828507711330897E-003	2.000000000000000E+000	-1.3687108E-004	6.7395672E-007
2	1	0	1	1	6.356839839412714E+001	-3.6508325E-001	-3.6525962E-001	-1.809815233737695E-003	2.000000000000000E+000	-1.3716980E-004	6.6105241E-007
2	1	0	0	1	6.373499838991847E+001	-3.6175117E-001	-3.6192375E-001	-1.794057712869664E-003	2.000000000000000E+000	-1.3746573E-004	6.4931208E-007
2	1	0	1	1	6.390159838570980E+001	-3.5841912E-001	-3.5859221E-001	-1.777341904954578E-003	2.000000000000000E+000	-1.3775888E-004	6.3734097E-007
2	1	0	0	1	6.406819838150113E+001	-3.5508704E-001	-3.5527807E-001	-1.759742203425792E-003	2.000000000000000E+000	-1.3804910E-004	6.2519780E-007
2	1	0	1	1	6.423479837729246E+001	-3.5175499E-001	-3.5194138E-001	-1.742831633685028E-003	2.000000000000000E+000	-1.3833646E-004	6.1337454E-007
2	1	0	0	1	6.440139837308379E+001	-3.4842339E-001	-3.4858632E-001	-1.723567331450744E-003	2.000000000000000E+000	-1.3862080E-004	6.0081197E-007
2	1	0	1	1	6.456799836887512E+001	-3.4509134E-001	-3.4527516E-001	-1.707794660611522E-003	2.000000000000000E+000	-1.3890231E-004	5.8965907E-007
2	1	0	0	1	6.473459836466645E+001	-3.4175929E-001	-3.4194154E-001	-1.689318707381891E-003	2.000000000000000E+000	-1.3918096E-004	5.7764822E-007
2	1	0	1	1	6.490119836045778E+001	-3.3842725E-001	-3.3857873E-001	-1.673081228091521E-003	2.000000000000000E+000	-1.3945672E-004	5.6646974E-007
2	1	0	0	1	6.506779835624911E+001	-3.3509514E-001	-3.3525065E-001	-1.656913435847208E-003	2.000000000000000E+000	-1.3972975E-004	5.5548128E-007
2	1	0	1	1	6.523439835204044E+001	-3.3176309E-001	-3.3191529E-001	-1.640041672051798E-003	2.000000000000000E+000	-1.4000003E-004	5.4435492E-007
2	1	0	0	1	6.540099834783177E+001	-3.2843146E-001	-3.2857564E-001	-1.622651622678852E-003	2.000000000000000E+000	-1.4026747E-004	5.3316381E-007
2	1	0	1	1	6.556759834362310E+001	-3.2509938E-001	-3.2523540E-001	-1.605588955125093E-003	2.000000000000000E+000	-1.4053211E-004	5.2219434E-007
2	1	0	0	1	6.573419833941443E+001	-3.2176730E-001	-3.2191655E-001	-1.590017842650442E-003	2.000000000000000E+000	-1.4079399E-004	5.1185305E-007
2	1	0	1	1	6.590079833520576E+001	-3.1843528E-001	-3.1859872E-001	-1.573938882861399E-003	2.000000000000000E+000	-1.4105315E-004	5.0145491E-007
2	1	0	0	1	6.606739833099709E+001	-3.1510320E-001	-3.1526130E-001	-1.555765068888455E-003	2.000000000000000E+000	-1.4130955E-004	4.9047253E-007
2	1	0	1	1	6.623399832678842E+001	-3.1177112E-001	-3.1195244E-001	-1.540292432183159E-003	2.000000000000000E+000	-1.4156316E-004	4.8049799E-007
2	1	0	0	1	6.640059832257975E+001	-3.0843952E-001	-3.0861020E-001	-1.522326368541697E-003	2.000000000000000E+000	-1.4181394E-004	4.6980546E-007
2	1	0	1	1	6.656719831837108E+001	-3.0510744E-001	-3.0525857E-001	-1.506877509896320E-003	2.000000000000000E+000	-1.4206198E-004	4.5998729E-007
2	1	0	0	1	6.673379831416241E+001	-3.0177540E-001	-3.0194142E-001	-1.489521829782492E-003	2.000000000000000E+000	-1.4230725E-004	4.4974834E-007
2	1	0	1	1	6.690039830995374E+001	-2.9844335E-001	-2.9861805E-001	-1.472457242895599E-003	2.000000000000000E+000	-1.4254972E-004	4.3970232E-007
2	1	0	0	1	6.706699830574507E+001	-2.9511127E-001	-2.9526767E-001	-1.455074219895013E-003	2.000000000000000E+000	-1.4278929E-004	4.2963637E-007
2	1	0	1	1	6.723359830153640E+001	-2.9177922E-001	-2.9190373E-001	-1.438680114642131E-003	2.000000000000000E+000	-1.4302600E-004	4.1995611E-007
2	1	0	0	1	6.740019829732773E+001	-2.8844717E-001	-2.8858221E-001	-1.421923361501046E-003	2.000000000000000E+000	-1.4325997E-004	4.1034178E-007
2	1	0	0	1	6.756689829311654E+001	-2.8511328E-001	-2.8524134E-001	-1.404378176912444E-003	2.000000000000000E+000	-1.4349121E-004	4.0058671E-007
2	1	0	1	1	6.773349828890787E+001	-2.8178120E-001	-2.8193122E-001	-1.386620001439191E-003	2.000000000000000E+000	-1.4371937E-004	3.9093146E-007
2	1	0	0	1	6.790009828469920E+001	-2.7844915E-001	-2.7859744E-001	-1.369774097463134E-003	2.000000000000000E+000	-1.4394465E-004	3.8161556E-007
2	1	0	1	1	6.806669828049053E+001	-2.7511710E-001	-2.7526423E-001	-1.352074941059926E-003	2.000000000000000E+000	-1.4416697E-004	3.7217788E-007
2	1	0	0	1	6.823329827628186E+001	-2.7178505E-001	-2.7192849E-001	-1.330971842922544E-003	2.000000000000000E+000	-1.4438607E-004	3.6192915E-007
2	1	0	1	1	6.839989827207319E+001	-2.6845294E-001	-2.6862109E-001	-1.310776690980263E-003	2.000000000000000E+000	-1.4460173E-004	3.5210226E-007
2	1	0	0	1	6.856649826786452E+001	-2.6512134E-001	-2.6528713E-001	-1.291491863084873E-003	2.000000000000000E+000	-1.4481417E-004	3.4261618E-007
2	1	0	1	1	6.873309826365585E+001	-2.6178929E-001	-2.6194146E-001	-1.271174956193586E-003	2.000000000000000E+000	-1.4502332E-004	3.3297343E-007
2	1	0	0	1	6.889969825944718E+001	-2.5845724E-001	-2.5860780E-001	-1.250098623860010E-003	2.000000000000000E+000	-1.4522902E-004	3.2328526E-007
2	1	0	1	1	6.906629825523851E+001	-2.5512514E-001	-2.5527465E-001	-1.226761007695086E-003	2.000000000000000E+000	-1.4543097E-004	3.1316100E-007
2	1	0	0	1	6.923289825102984E+001	-2.5179309E-001	-2.5195801E-001	-1.203578475137419E-003	2.000000000000000E+000	-1.4562902E-004	3.0325123E-007
2	1	0	1	1	6.939949824682117E+001	-2.4846104E-001	-2.4862018E-001	-1.178912916849082E-003	2.000000000000000E+000	-1.4582310E-004	2.9310155E-007
2	1	0	0	1	6.956609824261250E+001	-2.4512897E-001	-2.4529843E-001	-1.151899655325354E-003	2.000000000000000E+000	-1.4601286E-004	2.8255917E-007
2	1	0	1	1	6.973269823840383E+001	-2.4179734E-001	-2.4195103E-001	-1.124487607682932E-003	2.000000000000000E+000	-1.4619806E-004	2.7207093E-007
2	1	0	0	1	6.989929823419516E+001	-2.3846528E-001	-2.3864500E-001	-1.096152678370106E-003	2.000000000000000E+000	-1.4637857E-004	2.6159137E-007
2	1	0	1	1	7.006589822998649E+001	-2.3513326E-001	-2.3529398E-001	-1.064259977292308E-003	2.000000000000000E+000	-1.4655406E-004	2.5041396E-007
2	1	0	0	1	7.023249822577782E+001	-2.3180117E-001	-2.3197646E-001	-1.030627215284980E-003	2.000000000000000E+000	-1.4672411E-004	2.3908126E-007
2	1	0	1	1	7.039909822156915E+001	-2.2846909E-001	-2.2864817E-001	-9.939967077522843E-004	2.000000000000000E+000	-1.4688831E-004	2.2727554E-007
2	1	0	0	1	7.056569821736048E+001	-2.2513704E-001	-2.2531563E-001	-9.551573524640006E-004	2.000000000000000E+000	-1.4704620E-004	2.1521188E-007
2	1	0	1	1	7.073239821314928E+001	-2.2180323E-001	-2.2197515E-001	-9.120115294479203E-004	2.000000000000000E+000	-1.4719731E-004	2.0244390E-007
2	1	0	0	1	7.089899820894061E+001	-2.1847114E-001	-2.1864411E-001	-8.663318944459493E-004	2.000000000000000E+000	-1.4734096E-004	1.8941837E-007
2	1	0	1	1	7.106559820473194E+001	-2.1513911E-001	-2.1531135E-001	-8.173220307110991E-004	2.000000000000000E+000	-1.4747665E-004	1.7597871E-007
2	1	0	0	1	7.123219820052327E+001	-2.1180704E-001	-2.1196091E-001	-7.635241963360323E-004	2.000000000000000E+000	-1.4760373E-004	1.6183728E-007
2	1	0	1	1	7.139879819631460E+001	-2.0847496E-001	-2.0862859E-001	-7.060538812402716E-004	2.000000000000000E+000	-1.4772154E-004	1.4730303E-007
2	1	0	0	1	7.156539819210593E+001	-2.0514290E-001	-2.0528802E-001	-6.464373240462114E-004	2.000000000000000E+000	-1.4782965E-004	1.3270584E-007
2	1	0	1	1	7.173199818789726E+001	-2.0181084E-001	-2.0195441E-001	-5.846945326755896E-004	2.000000000000000E+000	-1.4792755E-004	1.1808164E-007
2	1	0	0	1	7.192359818305704E+001	-1.9797915E-001	-1.9811919E-001	-5.091521848516450E-004	2.000000000000000E+000	-1.4802662E-004	1.0087282E-007
2	1	0	1	1	7.211519817821682E+001	-1.9414708E-001	-1.9430301E-001	-4.357621577378221E-004	2.000000000000000E+000	-1.4811331E-004	8.4669900E-008
2	1	0	0	1	7.228179817400815E+001	-1.9081503E-001	-1.9096412E-001	-3.731627664616798E-004	2.000000000000000E+000	-1.4817627E-004	7.1260700E-008
2	1	0	1	1	7.244839816979948E+001	-1.8748298E-001	-1.8763752E-001	-3.115149806754338E-004	2.000000000000000E+000	-1.4822904E-004	5.8451899E-008
2	1	0	0	1	7.261499816559081E+001	-1.8415090E-001	-1.8431768E-001	-2.564388030154908E-004	2.000000000000000E+000	-1.4827211E-004	4.7266205E-008
2	1	0	1	1	7.278159816138214E+001	-1.8081884E-001	-1.8096216E-001	-2.052018716847974E-004	2.000000000000000E+000	-1.4830634E-004	3.7133773E-008
2	1	0	0	1	7.294819815717347E+001	-1.7748724E-001	-1.7762759E-001	-1.606987585981482E-004	2.000000000000000E+000	-1.4833259E-004	2.8544534E-008
2	1	0	1	1	7.311479815296480E+001	-1.7415516E-001	-1.7431448E-001	-1.254754159648190E-004	2.000000000000000E+000	-1.4835224E-004	2.1872182E-008
2	1	0	0	1	7.328139814875613E+001	-1.7082310E-001	-1.7098263E-001	-9.707088522781454E-005	2.000000000000000E+000	-1.4836667E-004	1.6597435E-008
2	1	0	1	1	7.344799814454746E+001	-1.6749105E-001	-1.6766211E-001	-7.796861900649134E-005	2.000000000000000E+000	-1.4837726E-004	1.3072383E-008
2	1	0	0	1	7.361459814033879E+001	-1.6415897E-001	-1.6431136E-001	-6.400419328398159E-005	2.000000000000000E+000	-1.4838511E-004	1.0516616E-008
2	1	0	1	1	7.378119813613012E+001	-1.6082694E-001	-1.6096291E-001	-5.964329712738678E-005	2.000000000000000E+000	-1.4839154E-004	9.6003587E-009
2	1	0	0	1	7.394779813192145E+001	-1.5749530E-001	-1.5761827E-001	-5.946340326360810E-005	2.000000000000000E+000	-1.4839749E-004	9.3725188E-009
2	1	0	1	1	7.411439812771278E+001	-1.5416323E-001	-1.5427472E-001	-6.836244479930295E-005	2.000000000000000E+000	-1.4840416E-004	1.0546596E-008
2	1	0	0	1	7.428099812350411E+001	-1.5083116E-001	-1.5095641E-001	-7.707117991888465E-005	2.000000000000000E+000	-1.4841245E-004	1.1634389E-008
2	1	0	1	1	7.444759811929544E+001	-1.4749911E-001	-1.4766155E-001	-9.272858614516326E-005	2.000000000000000E+000	-1.4842274E-004	1.3692447E-008
2	1	0	0	1	7.461419811508677E+001	-1.4416704E-001	-1.4431056E-001	-1.067077584245306E-004	2.000000000000000E+000	-1.4843550E-004	1.5399056E-008
2	1	0	1	1	7.478079811087810E+001	-1.4083497E-001	-1.4097401E-001	-1.238643599677105E-004	2.000000000000000E+000	-1.4845084E-004	1.7461657E-008
2	1	0	0	1	7.494739810666943E+001	-1.3750336E-001	-1.3765544E-001	-1.413686228654981E-004	2.000000000000000E+000	-1.4846906E-004	1.9460160E-008
2	1	0	1	1	7.511399810246076E+001	-1.3417129E-001	-1.3431059E-001	-1.581346965423384E-004	2.000000000000000E+000	-1.4849007E-004	2.1239163E-008
2	1	0	0	1	7.528059809825209E+001	-1.3083924E-001	-1.3098715E-001	-1.748966263811534E-004	2.000000000000000E+000	-1.4851391E-004	2.2909211E-008
2	1	0	1	1	7.544719809404342E+001	-1.2750718E-001	-1.2764549E-001	-1.905107578726454E-004	2.000000000000000E+000	-1.4854041E-004	2.4317840E-008
2	1	0	0	1	7.561379808983475E+001	-1.2417512E-001	-1.2430787E-001	-2.049763245546080E-004	2.000000000000000E+000	-1.4856942E-004	2.5480171E-008
2	1	0	1	1	7.578039808562608E+001	-1.2084305E-001	-1.2096003E-001	-2.193359943213206E-004	2.000000000000000E+000	-1.4860088E-004	2.6530888E-008
2	1	0	0	1	7.594699808141741E+001	-1.1751099E-001	-1.1763193E-001	-2.325717076726809E-004	2.000000000000000E+000	-1.4863462E-004	2.7357860E-008
2	1	0	1	1	7.611359807720874E+001	-1.1417937E-001	-1.1428644E-001	-2.437484476229459E-004	2.000000000000000E+000	-1.4867034E-004	2.7857142E-008
2	1	0	0	1	7.628019807300007E+001	-1.1084730E-001	-1.1095777E-001	-2.555049492484296E-004	2.000000000000000E+000	-1.4870802E-004	2.8350259E-008
2	1	0	1	1	7.644679806879140E+001	-1.0751523E-001	-1.0763641E-001	-2.644983271693100E-004	2.000000000000000E+000	-1.4874736E-004	2.8469652E-008
2	1	0	0	1	7.661339806458273E+001	-1.0418318E-001	-1.0431256E-001	-2.744397466367652E-004	2.000000000000000E+000	-1.4878831E-004	2.8627513E-008
2	1	0	1	1	7.677999806037406E+001	-1.0085110E-001	-1.0099532E-001	-2.812873844242490E-004	2.000000000000000E+000	-1.4883069E-004	2.8408710E-008
2	1	0	0	1	7.694659805616539E+001	-9.7519040E-002	-9.7646393E-002	-2.887902970668272E-004	2.000000000000000E+000	-1.4887430E-004	2.8199331E-008
2	1	0	1	1	7.711319805195672E+001	-9.4187424E-002	-9.4318964E-002	-2.955176098508165E-004	2.000000000000000E+000	-1.4891903E-004	2.7872915E-008
2	1	0	0	1	7.727979804774805E+001	-9.0855353E-002	-9.0967372E-002	-3.010320672489194E-004	2.000000000000000E+000	-1.4896480E-004	2.7384097E-008
2	1	0	1	1	7.744639804353938E+001	-8.7523304E-002	-8.7654904E-002	-3.062057417843652E-004	2.000000000000000E+000	-1.4901147E-004	2.6840434E-008
2	1	0	0	1	7.761299803933071E+001	-8.4191233E-002	-8.4355444E-002	-3.113299682007409E-004	2.000000000000000E+000	-1.4905896E-004	2.6262377E-008
2	1	0	1	1	7.777959803512204E+001	-8.0859177E-002	-8.1001624E-002	-3.152931254876284E-004	2.000000000000000E+000	-1.4910717E-004	2.5539256E-008
2	1	0	0	1	7.794619803091337E+001	-7.7527113E-002	-7.7692680E-002	-3.188016206677018E-004	2.000000000000000E+000	-1.4915601E-004	2.4768552E-008
2	1	0	1	1	7.811279802670470E+001	-7.4195497E-002	-7.4354239E-002	-3.221721375882567E-004	2.000000000000000E+000	-1.4920539E-004	2.3954865E-008
2	1	0	0	1	7.827939802249603E+001	-7.0863433E-002	-7.1022272E-002	-3.241674072900734E-004	2.000000000000000E+000	-1.4925527E-004	2.3023105E-008
2	1	0	1	1	7.844599801828736E+001	-6.7531377E-002	-6.7680649E-002	-3.264686367724656E-004	2.000000000000000E+000	-1.4930558E-004	2.2095609E-008
2	1	0	0	1	7.861259801407869E+001	-6.4199306E-002	-6.4365260E-002	-3.281203594486396E-004	2.000000000000000E+000	-1.4935622E-004	2.1119552E-008
2	1	0	1	1	7.877919800987002E+001	-6.0867243E-002	-6.1041631E-002	-3.298320792897450E-004	2.000000000000000E+000	-1.4940716E-004	2.0133488E-008
2	1	0	0	1	7.894579800566135E+001	-5.7535183E-002	-5.7692453E-002	-3.310221617802409E-004	2.000000000000000E+000	-1.4945831E-004	1.9097481E-008
2	1	0	1	1	7.911239800145268E+001	-5.4203115E-002	-5.4382812E-002	-3.313030137370404E-004	2.000000000000000E+000	-1.4950961E-004	1.8017190E-008
2	1	0	1	1	7.927909799724148E+001	-5.0869267E-002	-5.1034976E-002	-3.326564853331636E-004	2.000000000000000E+000	-1.4956102E-004	1.6977115E-008
2	1	0	0	1	7.944569799303281E+001	-4.7537208E-002	-4.7711063E-002	-3.334135766280130E-004	2.000000000000000E+000	-1.4961258E-004	1.5907517E-008
2	1	0	1	1	7.961229798882414E+001	-4.4205144E-002	-4.4393416E-002	-3.331865552158374E-004	2.000000000000000E+000	-1.4966422E-004	1.4791289E-008
2	1	0	0	1	7.977889798461547E+001	-4.0873084E-002	-4.1030280E-002	-3.327189383021956E-004	2.000000000000000E+000	-1.4971579E-004	1.3651551E-008
2	1	0	1	1	7.994549798040680E+001	-3.7541021E-002	-3.7698381E-002	-3.325279004246316E-004	2.000000000000000E+000	-1.4976734E-004	1.2535764E-008
2	1	0	0	1	8.011209797619813E+001	-3.4208957E-002	-3.4369651E-002	-3.318172847987559E-004	2.000000000000000E+000	-1.4981882E-004	1.1404444E-008
2	1	0	1	1	8.027869797198946E+001	-3.0877341E-002	-3.1040477E-002	-3.317609933223538E-004	2.000000000000000E+000	-1.4987019E-004	1.0298019E-008
2	1	0	0	1	8.044529796778079E+001	-2.7545277E-002	-2.7700355E-002	-3.304416499081662E-004	2.000000000000000E+000	-1.4992141E-004	9.1533510E-009
2	1	0	1	1	8.061189796357212E+001	-2.4213213E-002	-2.4363305E-002	-3.296446902534816E-004	2.000000000000000E+000	-1.4997253E-004	8.0312343E-009
2	1	0	0	1	8.077849795936345E+001	-2.0881152E-002	-2.1022059E-002	-3.277684940869909E-004	2.000000000000000E+000	-1.5002342E-004	6.8903687E-009
2	1	0	1	1	8.094509795515478E+001	-1.7549090E-002	-1.7719796E-002	-3.273783630773736E-004	2.000000000000000E+000	-1.5007409E-004	5.8010778E-009
2	1	0	0	1	8.111169795094611E+001	-1.4217027E-002	-1.4375399E-002	-3.258564484086325E-004	2.000000000000000E+000	-1.5012459E-004	4.6843165E-009
2	1	0	1	1	8.127829794673744E+001	-1.0884964E-002	-1.1044942E-002	-3.240876351599427E-004	2.000000000000000E+000	-1.5017479E-004	3.5795291E-009
2	1	0	0	1	8.144489794252877E+001	-7.5533460E-003	-7.7213692E-003	-3.218577833272703E-004	2.000000000000000E+000	-1.5022465E-004	2.4851827E-009
2	1	0	1	1	8.161149793832010E+001	-4.2212843E-003	-4.3909308E-003	-3.198395189823338E-004	2.000000000000000E+000	-1.5027425E-004	1.4043932E-009
2	1	0	0	1	8.177809793411143E+001	-8.7686302E-004	-1.0535322E-003	-3.175348726165597E-004	2.000000000000000E+000	-1.5032353E-004	3.3453323E-010
2	1	0	1	1	8.194469792990276E+001	2.4428407E-003	2.2792884E-003	-3.151223050440146E-004	2.000000000000000E+000	-1.5037236E-004	7.1825462E-010
2	1	0	0	1	8.211129792569409E+001	5.7749017E-003	5.6349146E-003	-3.130033847771919E-004	2.000000000000000E+000	-1.5042075E-004	1.7637474E-009
2	1	0	1	1	8.227789792148542E+001	9.1069620E-003	8.9748688E-003	-3.106112233613586E-004	2.000000000000000E+000	-1.5046878E-004	2.7876950E-009
2	1	0	0	1	8.244459791727422E+001	1.2440803E-002	1.2311960E-002	-3.076858641778138E-004	2.000000000000000E+000	-1.5051640E-004	3.7882160E-009
2	1	0	1	1	8.261119791306555E+001	1.5772864E-002	1.5669700E-002	-3.049868720404031E-004	2.000000000000000E+000	-1.5056354E-004	4.7790527E-009
2	1	0	0	1	8.277779790885688E+001	1.9104924E-002	1.8998060E-002	-3.017058188892133E-004	2.000000000000000E+000	-1.5061020E-004	5.7318252E-009
2	1	0	1	1	8.294439790464821E+001	2.2436988E-002	2.2321472E-002	-2.992663535752961E-004	2.000000000000000E+000	-1.5065637E-004	6.6800654E-009
2	1	0	0	1	8.311099790043954E+001	2.5769049E-002	2.5656562E-002	-2.960292035162075E-004	2.000000000000000E+000	-1.5070209E-004	7.5950917E-009
2	1	0	1	1	8.327759789623087E+001	2.9101109E-002	2.8985519E-002	-2.931299742286080E-004	2.000000000000000E+000	-1.5074731E-004	8.4965244E-009
2	1	0	0	1	8.344419789202220E+001	3.2433171E-002	3.2319367E-002	-2.891517125260053E-004	2.000000000000000E+000	-1.5079195E-004	9.3452002E-009
2	1	0	1	1	8.361079788781353E+001	3.5764787E-002	3.5659932E-002	-2.858485072862026E-004	2.000000000000000E+000	-1.5083600E-004	1.0193339E-008
2	1	0	0	1	8.377739788360486E+001	3.9096851E-002	3.8969785E-002	-2.822693968069084E-004	2.000000000000000E+000	-1.5087945E-004	1.0999978E-008
2	1	0	1	1	8.394399787939619E+001	4.2428911E-002	4.2313550E-002	-2.784809653374909E-004	2.000000000000000E+000	-1.5092234E-004	1.1783518E-008
2	1	0	0	1	8.411059787518752E+001	4.5760971E-002	4.5668844E-002	-2.741743198012268E-004	2.000000000000000E+000	-1.5096451E-004	1.2521224E-008
2	1	0	1	1	8.427719787097885E+001	4.9093030E-002	4.8999432E-002	-2.703017086803595E-004	2.000000000000000E+000	-1.5100604E-004	1.3244630E-008
2	1	0	0	1	8.444379786677018E+001	5.2425094E-002	5.2349176E-002	-2.662091779672901E-004	2.000000000000000E+000	-1.5104690E-004	1.3935831E-008
2	1	0	1	1	8.461039786256151E+001	5.5756714E-002	5.5667914E-002	-2.614612267482514E-004	2.000000000000000E+000	-1.5108709E-004	1.4555001E-008
2	1	0	0	1	8.477699785835284E+001	5.9088781E-002	5.9003234E-002	-2.581220070149437E-004	2.000000000000000E+000	-1.5112660E-004	1.5230032E-008
2	1	0	1	1	8.494359785414417E+001	6.2420834E-002	6.2338337E-002	-2.530075976175630E-004	2.000000000000000E+000	-1.5116546E-004	1.5772073E-008
2	1	0	0	1	8.511019784993550E+001	6.5752901E-002	6.5659679E-002	-2.490341326531675E-004	2.000000000000000E+000	-1.5120360E-004	1.6351501E-008
2	1	0	1	1	8.527679784572683E+001	6.9084957E-002	6.8985611E-002	-2.444971949479100E-004	2.000000000000000E+000	-1.5124099E-004	1.6866789E-008
2	1	0	0	1	8.544339784151816E+001	7.2417013E-002	7.2313935E-002	-2.398475006528109E-004	2.000000000000000E+000	-1.5127764E-004	1.7344316E-008
2	1	0	1	1	8.560999783730949E+001	7.5748645E-002	7.5648166E-002	-2.347747199416705E-004	2.000000000000000E+000	-1.5131348E-004	1.7760277E-008
2	1	0	0	1	8.577659783310082E+001	7.9080701E-002	7.8963742E-002	-2.299345615950413E-004	2.000000000000000E+000	-1.5134849E-004	1.8156493E-008
2	1	0	1	1	8.594319782889215E+001	8.2412757E-002	8.2313292E-002	-2.251869917173745E-004	2.000000000000000E+000	-1.5138272E-004	1.8535882E-008
2	1	0	0	1	8.610979782468348E+001	8.5744821E-002	8.5618444E-002	-2.203416767988680E-004	2.000000000000000E+000	-1.5141611E-004	1.8865311E-008
2	1	0	1	1	8.627639782047481E+001	8.9076892E-002	8.8972211E-002	-2.152340339728507E-004	2.000000000000000E+000	-1.5144869E-004	1.9149848E-008
2	1	0	0	1	8.644299781626614E+001	9.2408948E-002	9.2292689E-002	-2.099877227588372E-004	2.000000000000000E+000	-1.5148043E-004	1.9380332E-008
2	1	0	1	1	8.660959781205747E+001	9.5741004E-002	9.5637120E-002	-2.043789453234088E-004	2.000000000000000E+000	-1.5151131E-004	1.9546214E-008
2	1	0	0	1	8.675119780848036E+001	9.8572604E-002	9.8477244E-002	-2.000432689279750E-004	2.000000000000000E+000	-1.5153691E-004	1.9699710E-008
2	0	0	0	1	8.681839780678274E+001	9.9906117E-002	9.9810779E-002	-1.990433647733880E-004	2.000000000000000E+000	-1.5154885E-004	1.9866674E-008
2	0	0	1	1	8.690999780446873E+001	9.8073892E-002	9.7964346E-002	-2.446697445207310E-004	2.000000000000000E+000	-1.5157288E-004	2.3968912E-008
2	0	0	0	1	8.707659780026006E+001	9.4742283E-002	9.4619751E-002	-2.851516658810994E-004	2.000000000000000E+000	-1.5162089E-004	2.6980979E-008
2	0	0	1	1	8.724319779605139E+001	9.1410220E-002	9.1290154E-002	-3.174660453230905E-004	2.000000000000000E+000	-1.5167486E-004	2.8981525E-008
2	0	0	0	1	8.740979779184272E+001	8.8078164E-002	8.7951824E-002	-3.463146309478173E-004	2.000000000000000E+000	-1.5173390E-004	3.0459002E-008
2	0	0	1	1	8.757639778763405E+001	8.4746093E-002	8.4627151E-002	-3.728380500860645E-004	2.000000000000000E+000	-1.5179747E-004	3.1552222E-008
2	0	0	0	1	8.774299778342538E+001	8.1414029E-002	8.1307128E-002	-3.968934106399627E-004	2.000000000000000E+000	-1.5186530E-004	3.2270265E-008
2	0	0	1	1	8.790959777921671E+001	7.8081965E-002	7.7977926E-002	-4.196749222415662E-004	2.000000000000000E+000	-1.5193700E-004	3.2725382E-008
2	0	0	0	1	8.807619777500804E+001	7.4750349E-002	7.4639283E-002	-4.409623292601812E-004	2.000000000000000E+000	-1.5201238E-004	3.2913110E-008
2	0	0	1	1	8.824279777079937E+001	7.1418285E-002	7.1298830E-002	-4.603737246087047E-004	2.000000000000000E+000	-1.5209113E-004	3.2824108E-008
2	0	0	0	1	8.840939776659070E+001	6.8086222E-002	6.7977570E-002	-4.793366027610046E-004	2.000000000000000E+000	-1.5217313E-004	3.2584136E-008
2	0	0	1	1	8.857599776238203E+001	6.4754166E-002	6.4640701E-002	-4.971683451119938E-004	2.000000000000000E+000	-1.5225816E-004	3.2137311E-008
2	0	0	0	1	8.874259775817336E+001	6.1422102E-002	6.1327327E-002	-5.144040348726074E-004	2.000000000000000E+000	-1.5234608E-004	3.1547025E-008
2	0	0	1	1	8.890919775396469E+001	5.8090042E-002	5.7993028E-002	-5.300143175240093E-004	2.000000000000000E+000	-1.5243677E-004	3.0737134E-008
2	0	0	0	1	8.907579774975602E+001	5.4757986E-002	5.4650959E-002	-5.462873441123314E-004	2.000000000000000E+000	-1.5253013E-004	2.9855126E-008
2	0	0	0	1	8.924249774554482E+001	5.1424138E-002	5.1321093E-002	-5.608748611150068E-004	2.000000000000000E+000	-1.5262612E-004	2.8784712E-008
2	0	0	1	1	8.940909774133615E+001	4.8092075E-002	4.7984060E-002	-5.750250301675072E-004	2.000000000000000E+000	-1.5272449E-004	2.7592035E-008
2	0	0	0	1	8.957569773712748E+001	4.4760019E-002	4.4654258E-002	-5.889530807525077E-004	2.000000000000000E+000	-1.5282519E-004	2.6299263E-008
2	0	0	1	1	8.974229773291881E+001	4.1427955E-002	4.1292943E-002	-6.025427025895458E-004	2.000000000000000E+000	-1.5292819E-004	2.4880762E-008
2	0	0	0	1	8.990889772871014E+001	3.8095891E-002	3.7975173E-002	-6.148393241169441E-004	2.000000000000000E+000	-1.5303331E-004	2.3348630E-008
2	0	0	1	1	9.007549772450147E+001	3.4763832E-002	3.4636471E-002	-6.275058092572172E-004	2.000000000000000E+000	-1.5314054E-004	2.1734587E-008
2	0	0	0	1	9.024209772029280E+001	3.1432215E-002	3.1293355E-002	-6.399491330174676E-004	2.000000000000000E+000	-1.5324978E-004	2.0026155E-008
2	0	0	1	1	9.040869771608413E+001	2.8100153E-002	2.7973099E-002	-6.513245886093028E-004	2.000000000000000E+000	-1.5336098E-004	1.8219566E-008
2	0	0	0	1	9.057529771187546E+001	2.4768094E-002	2.4616396E-002	-6.628164381622288E-004	2.000000000000000E+000	-1.5347415E-004	1.6316152E-008
2	0	0	1	1	9.074189770766679E+001	2.1436034E-002	2.1312682E-002	-6.734756920568664E-004	2.000000000000000E+000	-1.5358919E-004	1.4353573E-008
2	0	0	0	1	9.090849770345812E+001	1.8103970E-002	1.7987721E-002	-6.837627218214768E-004	2.000000000000000E+000	-1.5370602E-004	1.2299333E-008
2	0	0	1	1	9.107509769924945E+001	1.4771909E-002	1.4670284E-002	-6.943830597023306E-004	2.000000000000000E+000	-1.5382460E-004	1.0186796E-008
2	0	0	0	1	9.124169769504078E+001	1.1440295E-002	1.1321434E-002	-7.047860388924724E-004	2.000000000000000E+000	-1.5394494E-004	7.9791889E-009
2	0	0	1	1	9.140829769083211E+001	8.1082340E-003	7.9627484E-003	-7.149401505988379E-004	2.000000000000000E+000	-1.5406698E-004	5.6928884E-009
2	0	0	0	1	9.157489768662344E+001	4.7761728E-003	4.6563102E-003	-7.239724717486937E-004	2.000000000000000E+000	-1.5419057E-004	3.3710403E-009
2	0	0	1	1	9.174149768241477E+001	1.4441117E-003	1.2958089E-003	-7.341174243763043E-004	2.000000000000000E+000	-1.5431579E-004	9.5127595E-010
2	0	0	0	1	9.190809767820610E+001	-1.8879499E-003	-2.0607500E-003	-7.435945236004306E-004	2.000000000000000E+000	-1.5444263E-004	1.5323625E-009
2	0	0	1	1	9.207469767399743E+001	-5.2200127E-003	-5.3648464E-003	-7.520807682073263E-004	2.000000000000000E+000	-1.5457098E-004	4.0347978E-009
2	0	0	0	1	9.224139766978624E+001	-8.5538542E-003	-8.7025752E-003	-7.610972991103624E-004	2.000000000000000E+000	-1.5470087E-004	6.6235066E-009
2	0	0	1	1	9.240799766557757E+001	-1.1885916E-002	-1.2046587E-002	-7.696785796929839E-004	2.000000000000000E+000	-1.5483217E-004	9.2720001E-009
2	0	0	0	1	9.257459766136890E+001	-1.5217979E-002	-1.5390595E-002	-7.780959729857431E-004	2.000000000000000E+000	-1.5496490E-004	1.1975360E-008
2	0	0	1	1	9.274119765716023E+001	-1.8550042E-002	-1.8709561E-002	-7.860481037089521E-004	2.000000000000000E+000	-1.5509901E-004	1.4706615E-008
2	0	0	0	1	9.290779765295156E+001	-2.1882106E-002	-2.2045547E-002	-7.944643969455354E-004	2.000000000000000E+000	-1.5523453E-004	1.7514402E-008
2	0	0	1	1	9.307439764874289E+001	-2.5214169E-002	-2.5363449E-002	-8.023935379302706E-004	2.000000000000000E+000	-1.5537142E-004	2.0351468E-008
2	0	0	0	1	9.324099764453422E+001	-2.8546231E-002	-2.8702376E-002	-8.106586314347306E-004	2.000000000000000E+000	-1.5550967E-004	2.3267829E-008
2	0	0	1	1	9.340759764032555E+001	-3.1878293E-002	-3.2042332E-002	-8.182906742237872E-004	2.000000000000000E+000	-1.5564925E-004	2.6219942E-008
2	0	0	0	1	9.357419763611688E+001	-3.5209913E-002	-3.5369370E-002	-8.267872930163081E-004	2.000000000000000E+000	-1.5579014E-004	2.9242946E-008
2	0	0	1	1	9.374079763190821E+001	-3.8541976E-002	-3.8691342E-002	-8.342856769502638E-004	2.000000000000000E+000	-1.5593237E-004	3.2279633E-008
2	0	0	0	1	9.390739762769954E+001	-4.1874036E-002	-4.2056039E-002	-8.420228081192152E-004	2.000000000000000E+000	-1.5607593E-004	3.5412143E-008
2	0	0	1	1	9.407399762349087E+001	-4.5206100E-002	-4.5387313E-002	-8.498161788150910E-004	2.000000000000000E+000	-1.5622079E-004	3.8570871E-008
2	0	0	0	1	9.424059761928220E+001	-4.8538163E-002	-4.8709482E-002	-8.569136545588836E-004	2.000000000000000E+000	-1.5636691E-004	4.1739820E-008
2	0	0	1	1	9.440719761507353E+001	-5.1870227E-002	-5.2053045E-002	-8.646211598162014E-004	2.000000000000000E+000	-1.5651427E-004	4.5006164E-008
2	0	0	0	1	9.457379761086486E+001	-5.5201847E-002	-5.5385392E-002	-8.722388975159348E-004	2.000000000000000E+000	-1.5666291E-004	4.8309293E-008
2	0	0	1	1	9.474039760665619E+001	-5.8533907E-002	-5.8697660E-002	-8.797103501336813E-004	2.000000000000000E+000	-1.5681279E-004	5.1636938E-008
2	0	0	0	1	9.490699760244752E+001	-6.1865974E-002	-6.2042244E-002	-8.869421729851244E-004	2.000000000000000E+000	-1.5696388E-004	5.5027883E-008
2	0	0	1	1	9.507359759823885E+001	-6.5198041E-002	-6.5367997E-002	-8.941891804702864E-004	2.000000000000000E+000	-1.5711623E-004	5.8451356E-008
2	0	0	0	1	9.524019759403018E+001	-6.8530105E-002	-6.8702444E-002	-9.016318464166589E-004	2.000000000000000E+000	-1.5726979E-004	6.1944313E-008
2	0	0	1	1	9.540679758982151E+001	-7.1862161E-002	-7.2042219E-002	-9.082102000166070E-004	2.000000000000000E+000	-1.5742460E-004	6.5429475E-008
2	0	0	0	1	9.557339758561284E+001	-7.5193778E-002	-7.5371563E-002	-9.152225339809326E-004	2.000000000000000E+000	-1.5758057E-004	6.8981755E-008
2	0	0	1	1	9.573999758140417E+001	-7.8525841E-002	-7.8709826E-002	-9.232631834755686E-004	2.000000000000000E+000	-1.5773781E-004	7.2669884E-008
2	0	0	0	1	9.592319757677615E+001	-8.2189649E-002	-8.2349420E-002	-9.299235863449284E-004	2.000000000000000E+000	-1.5791331E-004	7.6578665E-008
2	0	0	0	1	9.610649757214560E+001	-8.5855924E-002	-8.6000606E-002	-9.377343576292864E-004	2.000000000000000E+000	-1.5809010E-004	8.0645727E-008
2	0	0	1	1	9.627309756793693E+001	-8.9187980E-002	-8.9340799E-002	-9.454537735921311E-004	2.000000000000000E+000	-1.5825106E-004	8.4467594E-008
2	0	0	0	1	9.643969756372826E+001	-9.2520043E-002	-9.2668511E-002	-9.525710819527997E-004	2.000000000000000E+000	-1.5841330E-004	8.8273346E-008
2	0	0	1	1	9.660639755951706E+001	-9.5853895E-002	-9.6011117E-002	-9.604284269280946E-004	2.000000000000000E+000	-1.5857694E-004	9.2211806E-008
2	0	0	0	1	9.677299755530839E+001	-9.9185959E-002	-9.9336684E-002	-9.681812733672752E-004	2.000000000000000E+000	-1.5874172E-004	9.6175917E-008
2	0	0	1	1	9.693959755109972E+001	-1.0251802E-001	-1.0265162E-001	-9.758167004811705E-004	2.000000000000000E+000	-1.5890780E-004	1.0016916E-007
2	0	0	0	1	9.710619754689105E+001	-1.0585009E-001	-1.0598170E-001	-9.839968094904061E-004	2.000000000000000E+000	-1.5907524E-004	1.0428565E-007
2	0	0	1	1	9.727279754268238E+001	-1.0918216E-001	-1.0931481E-001	-9.920373211491813E-004	2.000000000000000E+000	-1.5924405E-004	1.0844437E-007
2	0	0	0	1	9.743939753847371E+001	-1.1251422E-001	-1.1262786E-001	-1.001002548023371E-003	2.000000000000000E+000	-1.5941428E-004	1.1274077E-007
2	0	0	1	1	9.760599753426504E+001	-1.1584628E-001	-1.1597038E-001	-1.009442010214093E-003	2.000000000000000E+000	-1.5958598E-004	1.1706538E-007
2	0	0	0	1	9.777259753005637E+001	-1.1917789E-001	-1.1931222E-001	-1.019214359466655E-003	2.000000000000000E+000	-1.5975921E-004	1.2160473E-007
2	0	0	1	1	9.793919752584770E+001	-1.2250997E-001	-1.2264565E-001	-1.028576029827139E-003	2.000000000000000E+000	-1.5993409E-004	1.2615037E-007
2	0	0	0	1	9.810579752163903E+001	-1.2584203E-001	-1.2598567E-001	-1.039137581829242E-003	2.000000000000000E+000	-1.6011063E-004	1.3091645E-007
2	0	0	1	1	9.827239751743036E+001	-1.2917410E-001	-1.2932704E-001	-1.050089738576756E-003	2.000000000000000E+000	-1.6028901E-004	1.3580500E-007
2	0	0	0	1	9.843899751322169E+001	-1.3250616E-001	-1.3266256E-001	-1.061989066576837E-003	2.000000000000000E+000	-1.6046927E-004	1.4088619E-007
2	0	0	1	1	9.860559750901302E+001	-1.3583823E-001	-1.3599581E-001	-1.074777578480676E-003	2.000000000000000E+000	-1.6065163E-004	1.4616525E-007
2	0	0	0	1	9.877219750480435E+001	-1.3916983E-001	-1.3934001E-001	-1.088297374166148E-003	2.000000000000000E+000	-1.6083622E-004	1.5164338E-007
2	0	0	1	1	9.893879750059568E+001	-1.4250191E-001	-1.4267176E-001	-1.103289981209675E-003	2.000000000000000E+000	-1.6102326E-004	1.5740832E-007
2	0	0	0	1	9.910539749638701E+001	-1.4583397E-001	-1.4600992E-001	-1.120406073901912E-003	2.000000000000000E+000	-1.6121299E-004	1.6359040E-007
2	0	0	1	1	9.927199749217834E+001	-1.4916602E-001	-1.4932936E-001	-1.138711720467089E-003	2.000000000000000E+000	-1.6140568E-004	1.7004309E-007
2	0	0	0	1	9.943859748796967E+001	-1.5249808E-001	-1.5266636E-001	-1.159020120207332E-003	2.000000000000000E+000	-1.6160158E-004	1.7694339E-007
2	0	0	1	1	9.960519748376100E+001	-1.5583014E-001	-1.5597007E-001	-1.182927756843754E-003	2.000000000000000E+000	-1.6180119E-004	1.8450132E-007
2	0	0	0	1	9.977179747955233E+001	-1.5916178E-001	-1.5931216E-001	-1.209762409895276E-003	2.000000000000000E+000	-1.6200509E-004	1.9272986E-007
2	0	0	1	1	9.993839747534366E+001	-1.6249384E-001	-1.6265826E-001	-1.240474208926218E-003	2.000000000000000E+000	-1.6221384E-004	2.0177337E-007
2	0	0	0	1	1.001049974711350E+002	-1.6582589E-001	-1.6599865E-001	-1.272982605707237E-003	2.000000000000000E+000	-1.6242785E-004	2.1131339E-007
2	0	0	1	1	1.002715974669263E+002	-1.6915797E-001	-1.6934581E-001	-1.310841687046756E-003	2.000000000000000E+000	-1.6264779E-004	2.2198554E-007
2	0	0	0	1	1.004381974627177E+002	-1.7249002E-001	-1.7266357E-001	-1.352502569752563E-003	2.000000000000000E+000	-1.6287439E-004	2.3352793E-007
2	0	0	1	1	1.006047974585090E+002	-1.7582208E-001	-1.7599186E-001	-1.399391255500988E-003	2.000000000000000E+000	-1.6310842E-004	2.4628147E-007
2	0	0	0	1	1.007713974543003E+002	-1.7915414E-001	-1.7933437E-001	-1.450608746567578E-003	2.000000000000000E+000	-1.6335059E-004	2.6014402E-007
2	0	0	1	1	1.009379974500916E+002	-1.8248577E-001	-1.8267985E-001	-1.508255279839756E-003	2.000000000000000E+000	-1.6360189E-004	2.7552784E-007
2	0	0	0	1	1.011045974458830E+002	-1.8581782E-001	-1.8599397E-001	-1.569481544709416E-003	2.000000000000000E+000	-1.6386314E-004	2.9191409E-007
2	0	0	1	1	1.012711974416743E+002	-1.8914990E-001	-1.8933076E-001	-1.634327283637840E-003	2.000000000000000E+000	-1.6413498E-004	3.0942843E-007
2	0	0	0	1	1.014377974374656E+002	-1.9248195E-001	-1.9264400E-001	-1.705559648637743E-003	2.000000000000000E+000	-1.6441809E-004	3.2856585E-007
2	0	0	1	1	1.016043974332570E+002	-1.9581401E-001	-1.9596823E-001	-1.775306958988782E-003	2.000000000000000E+000	-1.6471298E-004	3.4790375E-007
2	0	0	0	1	1.017709974290483E+002	-1.9914608E-001	-1.9930317E-001	-1.850781413859949E-003	2.000000000000000E+000	-1.6502014E-004	3.6886658E-007
2	0	0	1	1	1.019375974248396E+002	-2.0247771E-001	-2.0262866E-001	-1.924024496750564E-003	2.000000000000000E+000	-1.6533969E-004	3.8986249E-007
2	0	0	0	1	1.021041974206310E+002	-2.0580976E-001	-2.0598012E-001	-1.993940476616461E-003	2.000000000000000E+000	-1.6567111E-004	4.1071209E-007
2	0	0	1	1	1.022707974164223E+002	-2.0914182E-001	-2.0929150E-001	-2.062251348350268E-003	2.000000000000000E+000	-1.6601411E-004	4.3161168E-007
2	0	0	0	1	1.024373974122136E+002	-2.1247388E-001	-2.1265560E-001	-2.126958970230335E-003	2.000000000000000E+000	-1.6636810E-004	4.5230973E-007
2	0	0	1	1	1.026039974080049E+002	-2.1580596E-001	-2.1599156E-001	-2.182260005441417E-003	2.000000000000000E+000	-1.6673200E-004	4.7134972E-007
2	0	0	0	1	1.027705974037963E+002	-2.1913801E-001	-2.1929951E-001	-2.226201679725981E-003	2.000000000000000E+000	-1.6710421E-004	4.8820493E-007
2	0	0	1	1	1.029371973995876E+002	-2.2246961E-001	-2.2266062E-001	-2.263321637092669E-003	2.000000000000000E+000	-1.6748310E-004	5.0395261E-007
2	0	0	0	1	1.031037973953789E+002	-2.2580171E-001	-2.2599214E-001	-2.294147832731635E-003	2.000000000000000E+000	-1.6786749E-004	5.1845939E-007
2	0	0	1	1	1.032703973911703E+002	-2.2913375E-001	-2.2931349E-001	-2.313246498780930E-003	2.000000000000000E+000	-1.6825605E-004	5.3045864E-007
2	0	0	0	1	1.034369973869616E+002	-2.3246580E-001	-2.3264606E-001	-2.324858608460600E-003	2.000000000000000E+000	-1.6864706E-004	5.4086922E-007
2	0	0	1	1	1.036035973827529E+002	-2.3579791E-001	-2.3597029E-001	-2.328025129072157E-003	2.000000000000000E+000	-1.6903935E-004	5.4934475E-007
2	0	0	0	1	1.037701973785443E+002	-2.3912996E-001	-2.3929141E-001	-2.328736617940953E-003	2.000000000000000E+000	-1.6943197E-004	5.5724666E-007
2	0	0	1	1	1.039367973743356E+002	-2.4246202E-001	-2.4262378E-001	-2.325158707363252E-003	2.000000000000000E+000	-1.6982430E-004	5.6413876E-007
2	0	0	1	1	1.041034973701244E+002	-2.4579582E-001	-2.4597590E-001	-2.315595934693802E-003	2.000000000000000E+000	-1.7021573E-004	5.6958078E-007
2	0	0	0	1	1.042700973659157E+002	-2.4912789E-001	-2.4930371E-001	-2.305949972488001E-003	2.000000000000000E+000	-1.7060539E-004	5.7488188E-007
2	0	0	1	1	1.044366973617070E+002	-2.5245994E-001	-2.5264388E-001	-2.295117570014228E-003	2.000000000000000E+000	-1.7099336E-004	5.7984744E-007
2	0	0	0	1	1.046032973574984E+002	-2.5579202E-001	-2.5596270E-001	-2.282274970193773E-003	2.000000000000000E+000	-1.7137927E-004	5.8417726E-007
2	0	0	1	1	1.047698973532897E+002	-2.5912407E-001	-2.5928193E-001	-2.269688680643478E-003	2.000000000000000E+000	-1.7176309E-004	5.8848929E-007
2	0	0	0	1	1.049364973490810E+002	-2.6245612E-001	-2.6260212E-001	-2.261726740900923E-003	2.000000000000000E+000	-1.7214524E-004	5.9393426E-007
2	0	0	1	1	1.051030973448724E+002	-2.6578820E-001	-2.6595742E-001	-2.247271858924680E-003	2.000000000000000E+000	-1.7252563E-004	5.9767859E-007
2	0	0	0	1	1.052696973406637E+002	-2.6911983E-001	-2.6928863E-001	-2.238243113513721E-003	2.000000000000000E+000	-1.7290395E-004	6.0273339E-007
2	0	0	1	1	1.054362973364550E+002	-2.7245191E-001	-2.7261701E-001	-2.226435646938578E-003	2.000000000000000E+000	-1.7328060E-004	6.0696425E-007
2	0	0	0	1	1.056028973322464E+002	-2.7578393E-001	-2.7593851E-001	-2.218786327574725E-003	2.000000000000000E+000	-1.7365556E-004	6.1224858E-007
2	0	0	1	1	1.057694973280377E+002	-2.7911597E-001	-2.7926677E-001	-2.212821496085167E-003	2.000000000000000E+000	-1.7402934E-004	6.1796754E-007
2	0	0	0	1	1.059360973238290E+002	-2.8244808E-001	-2.8258076E-001	-2.205466877534210E-003	2.000000000000000E+000	-1.7440194E-004	6.2322249E-007
2	0	0	1	1	1.061026973196203E+002	-2.8578016E-001	-2.8591731E-001	-2.200947634596275E-003	2.000000000000000E+000	-1.7477357E-004	6.2928905E-007
2	0	0	0	1	1.062692973154117E+002	-2.8911176E-001	-2.8925002E-001	-2.196046750149448E-003	2.000000000000000E+000	-1.7514442E-004	6.3520656E-007
2	0	0	1	1	1.064358973112030E+002	-2.9244378E-001	-2.9260147E-001	-2.190960073317472E-003	2.000000000000000E+000	-1.7551445E-004	6.4107815E-007
2	0	0	0	1	1.066024973069943E+002	-2.9577586E-001	-2.9592910E-001	-2.189093989740576E-003	2.000000000000000E+000	-1.7588389E-004	6.4781665E-007
2	0	0	1	1	1.067690973027857E+002	-2.9910797E-001	-2.9927984E-001	-2.185234056241419E-003	2.000000000000000E+000	-1.7625284E-004	6.5399649E-007
2	0	0	0	1	1.069356972985770E+002	-3.0243999E-001	-3.0263492E-001	-2.183568863084278E-003	2.000000000000000E+000	-1.7662138E-004	6.6082418E-007
2	0	0	1	1	1.071022972943683E+002	-3.0577204E-001	-3.0594251E-001	-2.181423079140054E-003	2.000000000000000E+000	-1.7698966E-004	6.6739005E-007
2	0	0	0	1	1.072689972901571E+002	-3.0910590E-001	-3.0927578E-001	-2.182397480448902E-003	2.000000000000000E+000	-1.7735802E-004	6.7496268E-007
2	0	0	1	1	1.074355972859485E+002	-3.1243798E-001	-3.1261531E-001	-2.181806925392930E-003	2.000000000000000E+000	-1.7772616E-004	6.8206623E-007
2	0	0	0	1	1.076021972817398E+002	-3.1577006E-001	-3.1594127E-001	-2.184964105119112E-003	2.000000000000000E+000	-1.7809455E-004	6.9032035E-007
2	0	0	1	1	1.077687972775311E+002	-3.1910214E-001	-3.1926453E-001	-2.185660038398984E-003	2.000000000000000E+000	-1.7846320E-004	6.9780373E-007
2	0	0	0	1	1.079353972733225E+002	-3.2243419E-001	-3.2259220E-001	-2.189339756856153E-003	2.000000000000000E+000	-1.7883215E-004	7.0626390E-007
2	0	0	1	1	1.081019972691138E+002	-3.2576624E-001	-3.2590544E-001	-2.191943030274694E-003	2.000000000000000E+000	-1.7920163E-004	7.1436614E-007
2	0	0	0	1	1.082685972649051E+002	-3.2909834E-001	-3.2926366E-001	-2.196883921583272E-003	2.000000000000000E+000	-1.7957171E-004	7.2335405E-007
2	0	0	1	1	1.084351972606964E+002	-3.3242995E-001	-3.3259580E-001	-2.199808140972713E-003	2.000000000000000E+000	-1.7994257E-004	7.3164694E-007
2	0	0	0	1	1.086017972564878E+002	-3.3576202E-001	-3.3592200E-001	-2.204412271340467E-003	2.000000000000000E+000	-1.8031408E-004	7.4051059E-007
2	0	0	1	1	1.087683972522791E+002	-3.3909404E-001	-3.3927530E-001	-2.210380326298809E-003	2.000000000000000E+000	-1.8068647E-004	7.4992744E-007
2	0	0	0	1	1.089349972480704E+002	-3.4242612E-001	-3.4264109E-001	-2.216451817775904E-003	2.000000000000000E+000	-1.8105982E-004	7.5944746E-007
2	0	0	1	1	1.091015972438618E+002	-3.4575820E-001	-3.4595960E-001	-2.221515161133164E-003	2.000000000000000E+000	-1.8143411E-004	7.6855451E-007
2	0	0	0	1	1.092681972396531E+002	-3.4909025E-001	-3.4928691E-001	-2.228757753575276E-003	2.000000000000000E+000	-1.8180953E-004	7.7847591E-007
2	0	0	1	1	1.094347972354444E+002	-3.5242182E-001	-3.5264724E-001	-2.236424322270128E-003	2.000000000000000E+000	-1.8218615E-004	7.8866890E-007
2	0	0	0	1	1.096013972312358E+002	-3.5575390E-001	-3.5595536E-001	-2.245045650382166E-003	2.000000000000000E+000	-1.8256418E-004	7.9913605E-007
2	0	0	1	1	1.097679972270271E+002	-3.5908598E-001	-3.5929093E-001	-2.254341965527233E-003	2.000000000000000E+000	-1.8294370E-004	8.0996460E-007
2	0	0	0	1	1.099345972228184E+002	-3.6241803E-001	-3.6261582E-001	-2.262767161652569E-003	2.000000000000000E+000	-1.8332459E-004	8.2051520E-007
2	0	0	1	1	1.101011972186097E+002	-3.6575010E-001	-3.6591697E-001	-2.272047027969737E-003	2.000000000000000E+000	-1.8370691E-004	8.3138053E-007
2	0	0	0	1	1.102677972144011E+002	-3.6908215E-001	-3.6924830E-001	-2.282625794464394E-003	2.000000000000000E+000	-1.8409094E-004	8.4285568E-007
2	0	0	1	1	1.104343972101924E+002	-3.7241378E-001	-3.7261617E-001	-2.291707797181809E-003	2.000000000000000E+000	-1.8447661E-004	8.5392736E-007
2	0	0	0	1	1.106009972059837E+002	-3.7574586E-001	-3.7594029E-001	-2.302390286622189E-003	2.000000000000000E+000	-1.8486388E-004	8.6556128E-007
2	0	0	1	1	1.107675972017751E+002	-3.7907794E-001	-3.7926462E-001	-2.312473164761970E-003	2.000000000000000E+000	-1.8525285E-004	8.7703927E-007
2	0	0	0	1	1.109341971975664E+002	-3.8240996E-001	-3.8260576E-001	-2.324702925090831E-003	2.000000000000000E+000	-1.8564363E-004	8.8944472E-007
2	0	0	1	1	1.111007971933577E+002	-3.8574204E-001	-3.8595912E-001	-2.334955694318949E-003	2.000000000000000E+000	-1.8603636E-004	9.0119744E-007
2	0	0	0	1	1.112673971891491E+002	-3.8907412E-001	-3.8927132E-001	-2.345924762775078E-003	2.000000000000000E+000	-1.8643083E-004	9.1320123E-007
2	0	0	1	1	1.114339971849404E+002	-3.9240617E-001	-3.9262381E-001	-2.357634698666199E-003	2.000000000000000E+000	-1.8682703E-004	9.2566353E-007
2	0	0	0	1	1.116005971807317E+002	-3.9573777E-001	-3.9595973E-001	-2.372813402755138E-003	2.000000000000000E+000	-1.8722551E-004	9.3953855E-007
2	0	0	1	1	1.117671971765230E+002	-3.9906985E-001	-3.9927062E-001	-2.383336024424559E-003	2.000000000000000E+000	-1.8762604E-004	9.5159606E-007
2	0	0	0	1	1.119337971723144E+002	-4.0240189E-001	-4.0262336E-001	-2.397529969651147E-003	2.000000000000000E+000	-1.8802873E-004	9.6530152E-007
2	0	0	1	1	1.121003971681057E+002	-4.0573397E-001	-4.0592241E-001	-2.410727600143922E-003	2.000000000000000E+000	-1.8843371E-004	9.7856832E-007
2	0	0	0	1	1.122669971638970E+002	-4.0906605E-001	-4.0926665E-001	-2.423640077920512E-003	2.000000000000000E+000	-1.8884082E-004	9.9191504E-007
2	0	0	1	1	1.124335971596884E+002	-4.1239810E-001	-4.1259468E-001	-2.437865564411196E-003	2.000000000000000E+000	-1.8925020E-004	1.0058503E-006
2	0	0	0	1	1.126001971554797E+002	-4.1572970E-001	-4.1593048E-001	-2.453686263623099E-003	2.000000000000000E+000	-1.8966210E-004	1.0205629E-006
2	0	0	1	1	1.127667971512710E+002	-4.1906181E-001	-4.1926959E-001	-2.470093104604457E-003	2.000000000000000E+000	-1.9007661E-004	1.0356349E-006
2	0	0	0	1	1.129333971470624E+002	-4.2239386E-001	-4.2261633E-001	-2.486199556636776E-003	2.000000000000000E+000	-1.9049388E-004	1.0507085E-006
2	0	0	1	1	1.130999971428537E+002	-4.2572591E-001	-4.2591515E-001	-2.500395795231317E-003	2.000000000000000E+000	-1.9091360E-004	1.0649565E-006
2	0	0	0	1	1.132665971386450E+002	-4.2905796E-001	-4.2925128E-001	-2.518183316703726E-003	2.000000000000000E+000	-1.9133590E-004	1.0809334E-006
2	0	0	1	1	1.134331971344363E+002	-4.3239006E-001	-4.3258148E-001	-2.534948580293590E-003	2.000000000000000E+000	-1.9176114E-004	1.0965719E-006
2	0	0	0	1	1.135997971302277E+002	-4.3572167E-001	-4.3591046E-001	-2.551134906294191E-003	2.000000000000000E+000	-1.9218905E-004	1.1120663E-006
2	0	0	1	1	1.137663971260190E+002	-4.3905371E-001	-4.3925211E-001	-2.568424868051120E-003	2.000000000000000E+000	-1.9261987E-004	1.1281860E-006
2	0	0	0	1	1.139329971218103E+002	-4.4238582E-001	-4.4256914E-001	-2.587803916287081E-003	2.000000000000000E+000	-1.9305375E-004	1.1452821E-006
2	0	0	1	1	1.140995971176017E+002	-4.4571787E-001	-4.4591808E-001	-2.605559862138070E-003	2.000000000000000E+000	-1.9349069E-004	1.1618663E-006
2	0	0	0	1	1.142661971133930E+002	-4.4904992E-001	-4.4922480E-001	-2.625394890703230E-003	2.000000000000000E+000	-1.9393070E-004	1.1793925E-006
2	0	0	1	1	1.144327971091843E+002	-4.5238197E-001	-4.5256707E-001	-2.645492494404704E-003	2.000000000000000E+000	-1.9437399E-004	1.1972628E-006
2	0	0	0	1	1.145993971049757E+002	-4.5571402E-001	-4.5589346E-001	-2.666370385933821E-003	2.000000000000000E+000	-1.9482085E-004	1.2155808E-006
2	0	0	0	1	1.147660971007645E+002	-4.5904782E-001	-4.5922524E-001	-2.688685588201407E-003	2.000000000000000E+000	-1.9527141E-004	1.2347123E-006
2	0	0	1	1	1.149326970965558E+002	-4.6237984E-001	-4.6255735E-001	-2.708232357330170E-003	2.000000000000000E+000	-1.9572520E-004	1.2527128E-006
2	0	0	0	1	1.150992970923471E+002	-4.6571195E-001	-4.6589097E-001	-2.733222859455323E-003	2.000000000000000E+000	-1.9618279E-004	1.2733839E-006
2	0	0	1	1	1.152658970881384E+002	-4.6904403E-001	-4.6925402E-001	-2.756036058936991E-003	2.000000000000000E+000	-1.9664445E-004	1.2932810E-006
2	0	0	0	1	1.154324970839298E+002	-4.7237605E-001	-4.7258827E-001	-2.778339611789350E-003	2.000000000000000E+000	-1.9710969E-004	1.3130107E-006
2	0	0	1	1	1.155990970797211E+002	-4.7570813E-001	-4.7591767E-001	-2.803793157323764E-003	2.000000000000000E+000	-1.9757892E-004	1.3343747E-006
2	0	0	0	1	1.157656970755124E+002	-4.7904021E-001	-4.7925273E-001	-2.828123120239882E-003	2.000000000000000E+000	-1.9805218E-004	1.3553857E-006
2	0	0	1	1	1.159322970713038E+002	-4.8237181E-001	-4.8257551E-001	-2.856026367654432E-003	2.000000000000000E+000	-1.9852987E-004	1.3782484E-006
2	0	0	0	1	1.160988970670951E+002	-4.8570389E-001	-4.8591065E-001	-2.880074501378473E-003	2.000000000000000E+000	-1.9901205E-004	1.3994589E-006
2	0	0	1	1	1.162654970628864E+002	-4.8903596E-001	-4.8924872E-001	-2.911654478703032E-003	2.000000000000000E+000	-1.9949877E-004	1.4245232E-006
2	0	0	0	1	1.164320970586778E+002	-4.9236804E-001	-4.9257866E-001	-2.940410191046815E-003	2.000000000000000E+000	-1.9999045E-004	1.4483833E-006
2	0	0	1	1	1.165986970544691E+002	-4.9570009E-001	-4.9588922E-001	-2.967512081210474E-003	2.000000000000000E+000	-2.0048670E-004	1.4715572E-006
2	0	0	0	1	1.167652970502604E+002	-4.9903172E-001	-4.9922490E-001	-2.997708017714295E-003	2.000000000000000E+000	-2.0098775E-004	1.4965304E-006
2	0	0	1	1	1.169318970460517E+002	-5.0236374E-001	-5.0257146E-001	-3.029753432933045E-003	2.000000000000000E+000	-2.0149413E-004	1.5226676E-006
2	0	0	0	1	1.170984970418431E+002	-5.0569576E-001	-5.0589454E-001	-3.060823582775030E-003	2.000000000000000E+000	-2.0200570E-004	1.5484540E-006
2	0	0	1	1	1.172650970376344E+002	-5.0902790E-001	-5.0924653E-001	-3.096148136182559E-003	2.000000000000000E+000	-2.0252289E-004	1.5767027E-006
2	0	0	0	1	1.174316970334257E+002	-5.1235992E-001	-5.1256037E-001	-3.130152148579058E-003	2.000000000000000E+000	-2.0304574E-004	1.6043920E-006
2	0	0	1	1	1.175982970292171E+002	-5.1569200E-001	-5.1590395E-001	-3.161543922352010E-003	2.000000000000000E+000	-2.0357413E-004	1.6310530E-006
2	0	0	0	1	1.177649970250059E+002	-5.1902592E-001	-5.1922721E-001	-3.196217568765836E-003	2.000000000000000E+000	-2.0410845E-004	1.6595632E-006
2	0	0	1	1	1.179315970207972E+002	-5.2235794E-001	-5.2255887E-001	-3.234838393318213E-003	2.000000000000000E+000	-2.0464850E-004	1.6903934E-006
2	0	0	0	1	1.180981970165885E+002	-5.2569008E-001	-5.2590203E-001	-3.272696864044790E-003	2.000000000000000E+000	-2.0519501E-004	1.7211179E-006
2	0	0	1	1	1.182647970123799E+002	-5.2902210E-001	-5.2921933E-001	-3.312878138517841E-003	2.000000000000000E+000	-2.0574787E-004	1.7532392E-006
2	0	0	0	1	1.184313970081712E+002	-5.3235412E-001	-5.3253502E-001	-3.349000247494308E-003	2.000000000000000E+000	-2.0630725E-004	1.7834599E-006
2	0	0	1	1	1.185979970039625E+002	-5.3568619E-001	-5.3587973E-001	-3.391100441693468E-003	2.000000000000000E+000	-2.0687297E-004	1.8172220E-006
2	0	0	0	1	1.187645969997538E+002	-5.3901833E-001	-5.3919661E-001	-3.428525881684408E-003	2.000000000000000E+000	-2.0744537E-004	1.8486495E-006
2	0	0	1	1	1.189311969955452E+002	-5.4235029E-001	-5.4253048E-001	-3.472306953875560E-003	2.000000000000000E+000	-2.0802465E-004	1.8838324E-006
2	0	0	0	1	1.190977969913365E+002	-5.4568195E-001	-5.4586738E-001	-3.521373136472508E-003	2.000000000000000E+000	-2.0861154E-004	1.9222027E-006
2	0	0	1	1	1.192643969871278E+002	-5.4901403E-001	-5.4919785E-001	-3.562787896927766E-003	2.000000000000000E+000	-2.0920607E-004	1.9566755E-006
2	0	0	0	1	1.194309969829192E+002	-5.5234605E-001	-5.5254942E-001	-3.609079977791307E-003	2.000000000000000E+000	-2.0980800E-004	1.9941951E-006
2	0	0	1	1	1.195975969787105E+002	-5.5567819E-001	-5.5590230E-001	-3.657491895714451E-003	2.000000000000000E+000	-2.1041796E-004	2.0332081E-006
2	0	0	0	1	1.197641969745018E+002	-5.5901021E-001	-5.5923134E-001	-3.709635573635614E-003	2.000000000000000E+000	-2.1103617E-004	2.0745445E-006
2	0	0	1	1	1.199307969702932E+002	-5.6234229E-001	-5.6252402E-001	-3.755337723219634E-003	2.000000000000000E+000	-2.1166235E-004	2.1124677E-006
2	0	0	0	1	1.200973969660845E+002	-5.6567389E-001	-5.6587076E-001	-3.804714229811761E-003	2.000000000000000E+000	-2.1229668E-004	2.1529765E-006
2	0	0	1	1	1.202639969618758E+002	-5.6900597E-001	-5.6922746E-001	-3.860360657297602E-003	2.000000000000000E+000	-2.1293970E-004	2.1974233E-006
2	0	0	0	1	1.204305969576671E+002	-5.7233804E-001	-5.7254648E-001	-3.913176095167739E-003	2.000000000000000E+000	-2.1359166E-004	2.2404752E-006
2	0	0	1	1	1.205971969534585E+002	-5.7567006E-001	-5.7586902E-001	-3.963884353092917E-003	2.000000000000000E+000	-2.1425234E-004	2.2826782E-006
2	0	0	0	1	1.207637969492498E+002	-5.7900214E-001	-5.7920820E-001	-4.018486135620281E-003	2.000000000000000E+000	-2.1492163E-004	2.3275402E-006
2	0	0	1	1	1.209303969450411E+002	-5.8233374E-001	-5.8253068E-001	-4.071013142353898E-003	2.000000000000000E+000	-2.1559981E-004	2.3714902E-006
2	0	0	0	1	1.210969969408325E+002	-5.8566582E-001	-5.8587700E-001	-4.129504233986211E-003	2.000000000000000E+000	-2.1628727E-004	2.4193816E-006
2	0	0	1	1	1.212635969366238E+002	-5.8899790E-001	-5.8921361E-001	-4.184407041306751E-003	2.000000000000000E+000	-2.1698455E-004	2.4655096E-006
2	0	0	0	1	1.214301969324151E+002	-5.9232992E-001	-5.9254384E-001	-4.243966251155508E-003	2.000000000000000E+000	-2.1769135E-004	2.5147360E-006
2	0	0	1	1	1.215967969282065E+002	-5.9566194E-001	-5.9587872E-001	-4.301617529205978E-003	2.000000000000000E+000	-2.1840779E-004	2.5632423E-006
2	0	0	0	1	1.217466969244197E+002	-5.9866023E-001	-5.9887528E-001	-4.356279233344112E-003	2.000000000000000E+000	-2.1906020E-004	2.6088680E-006
2	1	0	1	0	1.218221969225124E+002	-6.0016018E-001	-6.0035557E-001	-4.387936244408294E-003	2.000000000000000E+000	-2.1939166E-004	2.6343218E-006