EC-Lab ASCII FILE
Nb header lines : 53                          

Cyclic Voltammetry

Run on channel : 1 (SN 0696)
User : 
Electrode connection : standard
Ewe ctrl range : min = -10.00 V, max = 10.00 V
Ewe,I filtering : 50 kHz
Channel : Grounded
Acquisition started on : 05/17/2017 12:39:23
Saved on :
	File : 100 uM MB 10mM PB  second ito_08_CV_C01.mpr
	Directory : \\userfs\st659\w2k\EC-Lab\Data\ITO Characterisation 17-5-17\
	Host : 144.32.136.43
Device : SP-300 (SN 0182)
Address : USB
EC-Lab for windows v10.44 (software)
Internet server v10.44 (firmware)
Command interpretor v10.44 (firmware)
Electrode material : 
Initial state : 
Electrolyte : 
Comments : 
Cable : standard
Electrode surface area : 0.001 cm²
Characteristic mass : 0.001 g
Equivalent Weight : 0.000 g/eq.
Density : 0.000 g/cm3
Ei (V)              0.000               
vs.                 Eoc                 
dE/dt               5000.000            
dE/dt unit          mV/s                
E1 (V)              0.100               
vs.                 Ref                 
Step percent        50                  
N                   10                  
E range min (V)     -10.000             
E range max (V)     10.000              
I Range             Auto                
I Range min         Unset               
I Range max         Unset               
I Range init        Unset               
Bandwidth           8                   
E2 (V)              -0.600              
vs.                 Ref                 
nc cycles           2                   
Reverse Scan        1                   
Ef (V)              0.000               
vs.                 Eoc                 

mode	ox/red	error	control changes	counter inc.	time/s	control/V	Ewe/V	<I>/mA	cycle number	(Q-Qo)/C	P/W
2	1	0	0	1	4.267737892187870E+002	-5.9982693E-001	-6.0017622E-001	-3.459737822413445E-002	2.000000000000000E+000	-3.4612024E-006	2.0764524E-005
2	1	0	1	1	4.267748892187592E+002	-5.9432918E-001	-5.9461141E-001	-3.074286472393495E-002	2.000000000000000E+000	-3.4953332E-006	1.8280058E-005
2	1	0	1	1	4.267768892187087E+002	-5.8433300E-001	-5.8462304E-001	-2.515334879757980E-002	2.000000000000000E+000	-3.5506116E-006	1.4705227E-005
2	1	0	1	1	4.267788892186582E+002	-5.7433683E-001	-5.7461292E-001	-2.069245561870042E-002	2.000000000000000E+000	-3.5959740E-006	1.1890153E-005
2	1	0	1	1	4.267808892186076E+002	-5.6434065E-001	-5.6461865E-001	-1.707320490216564E-002	2.000000000000000E+000	-3.6333499E-006	9.6398498E-006
2	1	0	1	1	4.267828892185571E+002	-5.5434442E-001	-5.5460936E-001	-1.405540114461069E-002	2.000000000000000E+000	-3.6641588E-006	7.7952573E-006
2	1	0	1	1	4.267848892185066E+002	-5.4434830E-001	-5.4459637E-001	-1.148908976251228E-002	2.000000000000000E+000	-3.6894398E-006	6.2569165E-006
2	1	0	1	1	4.267868892184561E+002	-5.3435206E-001	-5.3458858E-001	-9.265085257639971E-003	2.000000000000000E+000	-3.7099617E-006	4.9530086E-006
2	1	0	1	1	4.267888892184055E+002	-5.2435589E-001	-5.2459532E-001	-7.394383124240740E-003	2.000000000000000E+000	-3.7264258E-006	3.8790586E-006
2	1	0	1	1	4.267908892183550E+002	-5.1435965E-001	-5.1459712E-001	-5.748600664749859E-003	2.000000000000000E+000	-3.7393947E-006	2.9582134E-006
2	1	0	1	1	4.267928892183045E+002	-5.0436348E-001	-5.0461423E-001	-4.315936627487332E-003	2.000000000000000E+000	-3.7493105E-006	2.1778831E-006
2	1	0	1	1	4.267948892182540E+002	-4.9436730E-001	-4.9460942E-001	-3.055580276496689E-003	2.000000000000000E+000	-3.7565508E-006	1.5113188E-006
2	1	0	1	1	4.267968892182034E+002	-4.8437110E-001	-4.8462421E-001	-1.961005584361269E-003	2.000000000000000E+000	-3.7614543E-006	9.5035080E-007
2	1	0	1	1	4.267988892181529E+002	-4.7437492E-001	-4.7460368E-001	-9.832449601263841E-004	2.000000000000000E+000	-3.7642953E-006	4.6665167E-007
2	1	0	1	1	4.268008892181024E+002	-4.6437871E-001	-4.6461961E-001	-1.169591721207201E-004	2.000000000000000E+000	-3.7653074E-006	5.4341523E-008
2	1	0	1	1	4.268028892180519E+002	-4.5438251E-001	-4.5459306E-001	6.521120169572393E-004	2.000000000000000E+000	-3.7646939E-006	2.9644559E-007
2	1	0	1	1	4.268048892180013E+002	-4.4438636E-001	-4.4461328E-001	1.336300532847823E-003	2.000000000000000E+000	-3.7626348E-006	5.9413696E-007
2	1	0	1	1	4.268068892179508E+002	-4.3439016E-001	-4.3461224E-001	1.960588169241519E-003	2.000000000000000E+000	-3.7592731E-006	8.5209564E-007
2	1	0	1	1	4.268088892179003E+002	-4.2439398E-001	-4.2464316E-001	2.508616899907189E-003	2.000000000000000E+000	-3.7547468E-006	1.0652670E-006
2	1	0	1	1	4.268108892178498E+002	-4.1439778E-001	-4.1464192E-001	3.034567144267281E-003	2.000000000000000E+000	-3.7491509E-006	1.2582587E-006
2	1	0	1	1	4.268128892177992E+002	-4.0440157E-001	-4.0464538E-001	3.520449245317851E-003	2.000000000000000E+000	-3.7425455E-006	1.4245335E-006
2	1	0	1	1	4.268148892177487E+002	-3.9440539E-001	-3.9465487E-001	3.951663704558288E-003	2.000000000000000E+000	-3.7350292E-006	1.5595433E-006
2	1	0	1	1	4.268168892176982E+002	-3.8440922E-001	-3.8466108E-001	4.369254120522081E-003	2.000000000000000E+000	-3.7266675E-006	1.6806820E-006
2	1	0	1	1	4.268188892176477E+002	-3.7441304E-001	-3.7463859E-001	4.746967081296641E-003	2.000000000000000E+000	-3.7175105E-006	1.7783971E-006
2	1	0	1	1	4.268208892175971E+002	-3.6441684E-001	-3.6463672E-001	5.116881563784162E-003	2.000000000000000E+000	-3.7076084E-006	1.8658029E-006
2	1	0	1	1	4.268228892175466E+002	-3.5442066E-001	-3.5467127E-001	5.473321050380425E-003	2.000000000000000E+000	-3.6969818E-006	1.9412298E-006
2	1	0	1	1	4.268248892174961E+002	-3.4442446E-001	-3.4467891E-001	5.850758337348660E-003	2.000000000000000E+000	-3.6856184E-006	2.0166331E-006
2	1	0	1	1	4.268268892174456E+002	-3.3442828E-001	-3.3464628E-001	6.184525543580510E-003	2.000000000000000E+000	-3.6735510E-006	2.0696284E-006
2	1	0	1	1	4.268288892173950E+002	-3.2443210E-001	-3.2463697E-001	6.534099613115057E-003	2.000000000000000E+000	-3.6607964E-006	2.1212102E-006
2	1	0	1	1	4.268308892173445E+002	-3.1443593E-001	-3.1466031E-001	6.867019168971131E-003	2.000000000000000E+000	-3.6473621E-006	2.1607784E-006
2	1	0	1	1	4.268328892172940E+002	-3.0443969E-001	-3.0467856E-001	7.240409304661938E-003	2.000000000000000E+000	-3.6332181E-006	2.2059976E-006
2	1	0	1	1	4.268348892172435E+002	-2.9444349E-001	-2.9464379E-001	7.601891301924790E-003	2.000000000000000E+000	-3.6183421E-006	2.2398501E-006
2	1	0	1	1	4.268368892171929E+002	-2.8444734E-001	-2.8463277E-001	7.973586180216661E-003	2.000000000000000E+000	-3.6027297E-006	2.2695440E-006
2	1	0	1	1	4.268388892171424E+002	-2.7445117E-001	-2.7464956E-001	8.366025224960244E-003	2.000000000000000E+000	-3.5863497E-006	2.2977251E-006
2	1	0	1	1	4.268408892170919E+002	-2.6445496E-001	-2.6466098E-001	8.786010641920750E-003	2.000000000000000E+000	-3.5691589E-006	2.3253142E-006
2	1	0	1	1	4.268428892170414E+002	-2.5445879E-001	-2.5466692E-001	9.263797530770196E-003	2.000000000000000E+000	-3.5510645E-006	2.3591829E-006
2	1	0	1	1	4.268448892169909E+002	-2.4446259E-001	-2.4469493E-001	9.774470246864231E-003	2.000000000000000E+000	-3.5319767E-006	2.3917632E-006
2	1	0	1	1	4.268468892169403E+002	-2.3446639E-001	-2.3469029E-001	1.031991461099505E-002	2.000000000000000E+000	-3.5118260E-006	2.4219837E-006
2	1	0	1	1	4.268488892168898E+002	-2.2447020E-001	-2.2471513E-001	1.097596448764510E-002	2.000000000000000E+000	-3.4904695E-006	2.4664653E-006
2	1	0	1	1	4.268508892168393E+002	-2.1447402E-001	-2.1470346E-001	1.164932528303730E-002	2.000000000000000E+000	-3.4677796E-006	2.5011504E-006
2	1	0	1	1	4.268528892167888E+002	-2.0447782E-001	-2.0469373E-001	1.243235990619324E-002	2.000000000000000E+000	-3.4436123E-006	2.5448262E-006
2	1	0	1	1	4.268548892167382E+002	-1.9448164E-001	-1.9469967E-001	1.330273603000224E-002	2.000000000000000E+000	-3.4177986E-006	2.5900383E-006
2	1	0	1	1	4.268568892166877E+002	-1.8448545E-001	-1.8469694E-001	1.416152020687556E-002	2.000000000000000E+000	-3.3902552E-006	2.6155894E-006
2	1	0	1	1	4.268588892166372E+002	-1.7448926E-001	-1.7471454E-001	1.509880976381178E-002	2.000000000000000E+000	-3.3609026E-006	2.6379814E-006
2	1	0	1	1	4.268608892165867E+002	-1.6449308E-001	-1.6470481E-001	1.603184065485645E-002	2.000000000000000E+000	-3.3296819E-006	2.6405214E-006
2	1	0	1	1	4.268628892165361E+002	-1.5449688E-001	-1.5469784E-001	1.698707735158678E-002	2.000000000000000E+000	-3.2965781E-006	2.6278642E-006
2	1	0	1	1	4.268648892164856E+002	-1.4450069E-001	-1.4470166E-001	1.796151124997580E-002	2.000000000000000E+000	-3.2615417E-006	2.5990605E-006
2	1	0	1	1	4.268668892164351E+002	-1.3450451E-001	-1.3469468E-001	1.883305084831793E-002	2.000000000000000E+000	-3.2246505E-006	2.5367117E-006
2	1	0	1	1	4.268688892163846E+002	-1.2450831E-001	-1.2468728E-001	1.963504940714406E-002	2.000000000000000E+000	-3.1861166E-006	2.4482408E-006
2	1	0	1	1	4.268708892163340E+002	-1.1451212E-001	-1.1468326E-001	2.043609385347933E-002	2.000000000000000E+000	-3.1459622E-006	2.3436778E-006
2	1	0	1	1	4.268728892162835E+002	-1.0451594E-001	-1.0469325E-001	2.100652000970310E-002	2.000000000000000E+000	-3.1044560E-006	2.1992407E-006
2	1	0	1	1	4.268748892162330E+002	-9.4519749E-002	-9.4701514E-002	2.150352574972209E-002	2.000000000000000E+000	-3.0618971E-006	2.0364164E-006
2	1	0	1	1	4.268768892161825E+002	-8.4523566E-002	-8.4716588E-002	2.180517181841418E-002	2.000000000000000E+000	-3.0185563E-006	1.8472598E-006
2	1	0	1	1	4.268788892161319E+002	-7.4527368E-002	-7.4728049E-002	2.204416062239850E-002	2.000000000000000E+000	-2.9746777E-006	1.6473172E-006
2	1	0	1	1	4.268808892160814E+002	-6.4531177E-002	-6.4720005E-002	2.221261099394822E-002	2.000000000000000E+000	-2.9304024E-006	1.4376003E-006
2	1	0	1	1	4.268828892160309E+002	-5.4534987E-002	-5.4743759E-002	2.232648058513100E-002	2.000000000000000E+000	-2.8858431E-006	1.2222355E-006
2	1	0	1	1	4.268848892159804E+002	-4.4538800E-002	-4.4729147E-002	2.229832132272555E-002	2.000000000000000E+000	-2.8412201E-006	9.9738486E-007
2	1	0	1	1	4.268868892159298E+002	-3.4542613E-002	-3.4727257E-002	2.219369034800261E-002	2.000000000000000E+000	-2.7967253E-006	7.7072599E-007
2	1	0	1	1	4.268888892158793E+002	-2.4546426E-002	-2.4719635E-002	2.200807525110166E-002	2.000000000000000E+000	-2.7525330E-006	5.4403159E-007
2	1	0	1	1	4.268908892158288E+002	-1.4550235E-002	-1.4747206E-002	2.174103173618069E-002	2.000000000000000E+000	-2.7088086E-006	3.2061948E-007
2	1	0	1	1	4.268928892157783E+002	-4.5355344E-003	-4.7279312E-003	2.141332595298687E-002	2.000000000000000E+000	-2.6656755E-006	1.0124073E-007
2	1	0	1	1	4.268948892157277E+002	5.7753474E-003	5.6175594E-003	2.125885784698767E-002	2.000000000000000E+000	-2.6230105E-006	1.1942289E-007
2	1	0	1	1	4.268968892156772E+002	1.5771531E-002	1.5633227E-002	2.089154970801455E-002	2.000000000000000E+000	-2.5809059E-006	3.2660233E-007
2	1	0	1	1	4.268988892156267E+002	2.5767718E-002	2.5607772E-002	2.050824265542256E-002	2.000000000000000E+000	-2.5395461E-006	5.2517038E-007
2	1	0	1	1	4.269008892155762E+002	3.5763901E-002	3.5611570E-002	2.013495744944924E-002	2.000000000000000E+000	-2.4989336E-006	7.1703744E-007
2	1	0	1	1	4.269028892155256E+002	4.5760084E-002	4.5610279E-002	1.982939343158951E-002	2.000000000000000E+000	-2.4589947E-006	9.0442416E-007
2	1	0	1	1	4.269048892154751E+002	5.5756267E-002	5.5620011E-002	1.949581789045224E-002	2.000000000000000E+000	-2.4197077E-006	1.0843576E-006
2	1	0	1	1	4.269068892154246E+002	6.5752454E-002	6.5623388E-002	1.919906683037381E-002	2.000000000000000E+000	-2.3810335E-006	1.2599078E-006
2	1	0	1	1	4.269088892153741E+002	7.5748637E-002	7.5610653E-002	1.898641539345491E-002	2.000000000000000E+000	-2.3428809E-006	1.4355753E-006
2	1	0	1	1	4.269108892153236E+002	8.5744821E-002	8.5596651E-002	1.869691255362549E-002	2.000000000000000E+000	-2.3052248E-006	1.6003931E-006
2	1	0	1	1	4.269126892152781E+002	9.4741404E-002	9.4576292E-002	1.839701872631852E-002	2.000000000000000E+000	-2.2718450E-006	1.7399218E-006
2	1	0	1	1	4.269135892152553E+002	9.9239700E-002	9.9059135E-002	1.823372766375542E-002	2.000000000000000E+000	-2.2553331E-006	1.8062173E-006
2	1	0	0	1	4.269137892152503E+002	1.0023932E-001	1.0008930E-001	1.820359565317631E-002	2.000000000000000E+000	-2.2516924E-006	1.8219851E-006
2	0	0	1	1	4.269139892152452E+002	9.9239700E-002	9.9249907E-002	1.734620891511440E-002	2.000000000000000E+000	-2.2482232E-006	1.7216096E-006
2	0	0	0	1	4.269150892152174E+002	9.3741767E-002	9.3696959E-002	1.357174867593534E-002	2.000000000000000E+000	-2.2329741E-006	1.2716316E-006
2	0	0	0	1	4.269170892151669E+002	8.3745584E-002	8.3684064E-002	8.735114363844360E-003	2.000000000000000E+000	-2.2112390E-006	7.3098988E-007
2	0	0	0	1	4.269190892151164E+002	7.3749401E-002	7.3685989E-002	5.545448031726762E-003	2.000000000000000E+000	-2.1973185E-006	4.0862182E-007
2	0	0	0	1	4.269210892150659E+002	6.3753210E-002	6.3698508E-002	3.316336799899648E-003	2.000000000000000E+000	-2.1887008E-006	2.1124571E-007
2	0	0	0	1	4.269230892150154E+002	5.3757031E-002	5.3693224E-002	1.621078936940041E-003	2.000000000000000E+000	-2.1839478E-006	8.7040952E-008
2	0	0	0	1	4.269250892149648E+002	4.3760847E-002	4.3673743E-002	2.843156349641176E-004	2.000000000000000E+000	-2.1821854E-006	1.2417128E-008
2	0	0	0	1	4.269270892149143E+002	3.3764664E-002	3.3683300E-002	-7.861672687631124E-004	2.000000000000000E+000	-2.1828032E-006	2.6480707E-008
2	0	0	0	1	4.269290892148638E+002	2.3768479E-002	2.3680989E-002	-1.681926770945411E-003	2.000000000000000E+000	-2.1853675E-006	3.9829690E-008
2	0	0	0	1	4.269310892148133E+002	1.3772294E-002	1.3700509E-002	-2.450722647861572E-003	2.000000000000000E+000	-2.1895819E-006	3.3576146E-008
2	0	0	0	1	4.269330892147627E+002	3.7575988E-003	3.6564379E-003	-3.143937730985473E-003	2.000000000000000E+000	-2.1952537E-006	1.1495613E-008
2	0	0	0	1	4.269350892147122E+002	-6.5532830E-003	-6.6731558E-003	-3.847683593095196E-003	2.000000000000000E+000	-2.2023285E-006	2.5676192E-008
2	0	0	0	1	4.269370892146617E+002	-1.6549472E-002	-1.6687980E-002	-4.345113472027158E-003	2.000000000000000E+000	-2.2105728E-006	7.2511163E-008
2	0	0	0	1	4.269390892146112E+002	-2.6545661E-002	-2.6670160E-002	-4.851146207379815E-003	2.000000000000000E+000	-2.2198180E-006	1.2938085E-007
2	0	0	0	1	4.269410892145606E+002	-3.6541849E-002	-3.6666542E-002	-5.310097511432493E-003	2.000000000000000E+000	-2.2300237E-006	1.9470292E-007
2	0	0	0	1	4.269430892145101E+002	-4.6538040E-002	-4.6674158E-002	-5.763560358496359E-003	2.000000000000000E+000	-2.2411423E-006	2.6900932E-007
2	0	0	0	1	4.269450892144596E+002	-5.6534227E-002	-5.6676261E-002	-6.193058553839764E-003	2.000000000000000E+000	-2.2531433E-006	3.5099941E-007
2	0	0	0	1	4.269470892144091E+002	-6.6530421E-002	-6.6661626E-002	-6.625735439835509E-003	2.000000000000000E+000	-2.2660076E-006	4.4168229E-007
2	0	0	0	1	4.269490892143585E+002	-7.6526605E-002	-7.6656312E-002	-7.069133639055904E-003	2.000000000000000E+000	-2.2797415E-006	5.4189371E-007
2	0	0	0	1	4.269510892143080E+002	-8.6522795E-002	-8.6654812E-002	-7.463161888356100E-003	2.000000000000000E+000	-2.2943184E-006	6.4671889E-007
2	0	0	0	1	4.269530892142575E+002	-9.6518993E-002	-9.6632324E-002	-7.882256768425591E-003	2.000000000000000E+000	-2.3097023E-006	7.6168078E-007
2	0	0	0	1	4.269550892142070E+002	-1.0651516E-001	-1.0662955E-001	-8.329150496744347E-003	2.000000000000000E+000	-2.3259622E-006	8.8813357E-007
2	0	0	0	1	4.269570892141564E+002	-1.1651136E-001	-1.1660962E-001	-8.808062124949695E-003	2.000000000000000E+000	-2.3431498E-006	1.0271048E-006
2	0	0	0	1	4.269590892141059E+002	-1.2650755E-001	-1.2661344E-001	-9.248303456438928E-003	2.000000000000000E+000	-2.3612463E-006	1.1709595E-006
2	0	0	0	1	4.269610892140554E+002	-1.3650374E-001	-1.3663566E-001	-9.741390003707925E-003	2.000000000000000E+000	-2.3802859E-006	1.3310213E-006
2	0	0	0	1	4.269630892140049E+002	-1.4649992E-001	-1.4663015E-001	-1.029816958018473E-002	2.000000000000000E+000	-2.4003762E-006	1.5100222E-006
2	0	0	0	1	4.269650892139543E+002	-1.5649612E-001	-1.5660979E-001	-1.083125992752480E-002	2.000000000000000E+000	-2.4215594E-006	1.6962813E-006
2	0	0	0	1	4.269670892139038E+002	-1.6649231E-001	-1.6663244E-001	-1.140454595487325E-002	2.000000000000000E+000	-2.4438409E-006	1.9003674E-006
2	0	0	0	1	4.269690892138533E+002	-1.7648849E-001	-1.7662437E-001	-1.206943178941502E-002	2.000000000000000E+000	-2.4673827E-006	2.1317558E-006
2	0	0	0	1	4.269710892138028E+002	-1.8648469E-001	-1.8663390E-001	-1.279078587867842E-002	2.000000000000000E+000	-2.4923129E-006	2.3871942E-006
2	0	0	0	1	4.269730892137522E+002	-1.9648087E-001	-1.9660421E-001	-1.355059780144069E-002	2.000000000000000E+000	-2.5187342E-006	2.6641046E-006
2	0	0	0	1	4.269750892137017E+002	-2.0647706E-001	-2.0661139E-001	-1.441605671405137E-002	2.000000000000000E+000	-2.5467889E-006	2.9785215E-006
2	0	0	0	1	4.269770892136512E+002	-2.1647325E-001	-2.1662878E-001	-1.525914065496181E-002	2.000000000000000E+000	-2.5765542E-006	3.3055690E-006
2	0	0	0	1	4.269790892136007E+002	-2.2646944E-001	-2.2663109E-001	-1.621270392489452E-002	2.000000000000000E+000	-2.6081125E-006	3.6743027E-006
2	0	0	0	1	4.269810892135501E+002	-2.3646563E-001	-2.3661241E-001	-1.715497347201256E-002	2.000000000000000E+000	-2.6415748E-006	4.0590794E-006
2	0	0	0	1	4.269830892134996E+002	-2.4646182E-001	-2.4660710E-001	-1.821320953483030E-002	2.000000000000000E+000	-2.6770476E-006	4.4915068E-006
2	0	0	0	1	4.269850892134491E+002	-2.5645798E-001	-2.5660160E-001	-1.915346542409679E-002	2.000000000000000E+000	-2.7145168E-006	4.9148098E-006
2	0	0	0	1	4.269870892133986E+002	-2.6645419E-001	-2.6659435E-001	-2.009834049062603E-002	2.000000000000000E+000	-2.7538626E-006	5.3581039E-006
2	0	0	0	1	4.269890892133481E+002	-2.7645037E-001	-2.7657530E-001	-2.107177871382900E-002	2.000000000000000E+000	-2.7951314E-006	5.8279334E-006
2	0	0	0	1	4.269910892132975E+002	-2.8644654E-001	-2.8656128E-001	-2.201737293338124E-002	2.000000000000000E+000	-2.8383167E-006	6.3093266E-006
2	0	0	0	1	4.269930892132470E+002	-2.9644272E-001	-2.9657695E-001	-2.283316765735643E-002	2.000000000000000E+000	-2.8832480E-006	6.7717910E-006
2	0	0	0	1	4.269950892131965E+002	-3.0643892E-001	-3.0657163E-001	-2.366557119562956E-002	2.000000000000000E+000	-2.9298294E-006	7.2551929E-006
2	0	0	0	1	4.269970892131460E+002	-3.1643516E-001	-3.1657457E-001	-2.448878065964281E-002	2.000000000000000E+000	-2.9780715E-006	7.7525256E-006
2	0	0	0	1	4.269990892130954E+002	-3.2643130E-001	-3.2657394E-001	-2.513603609824916E-002	2.000000000000000E+000	-3.0277774E-006	8.2087745E-006
2	0	0	0	1	4.270010892130449E+002	-3.3642751E-001	-3.3658475E-001	-2.580107094440287E-002	2.000000000000000E+000	-3.0787699E-006	8.6842465E-006
2	0	0	0	1	4.270030892129944E+002	-3.4642372E-001	-3.4660545E-001	-2.633886538387747E-002	2.000000000000000E+000	-3.1309655E-006	9.1291940E-006
2	0	0	0	1	4.270050892129439E+002	-3.5641989E-001	-3.5658872E-001	-2.677251747041332E-002	2.000000000000000E+000	-3.1841321E-006	9.5467776E-006
2	0	0	0	1	4.270070892128933E+002	-3.6641607E-001	-3.6657262E-001	-2.723549432994327E-002	2.000000000000000E+000	-3.2381693E-006	9.9837862E-006
2	0	0	0	1	4.270090892128428E+002	-3.7641230E-001	-3.7656367E-001	-2.756483320546169E-002	2.000000000000000E+000	-3.2930191E-006	1.0379915E-005
2	0	0	0	1	4.270110892127923E+002	-3.8640845E-001	-3.8657746E-001	-2.782895220621460E-002	2.000000000000000E+000	-3.3484473E-006	1.0758045E-005
2	0	0	0	1	4.270130892127418E+002	-3.9640462E-001	-3.9660433E-001	-2.792080457382123E-002	2.000000000000000E+000	-3.4042071E-006	1.1073512E-005
2	0	0	0	1	4.270150892126912E+002	-4.0640083E-001	-4.0658718E-001	-2.803853063475498E-002	2.000000000000000E+000	-3.4601719E-006	1.1400107E-005
2	0	0	0	1	4.270170892126407E+002	-4.1639701E-001	-4.1660205E-001	-2.812426004958166E-002	2.000000000000000E+000	-3.5163500E-006	1.1716625E-005
2	0	0	0	1	4.270190892125902E+002	-4.2639321E-001	-4.2657149E-001	-2.800926773084536E-002	2.000000000000000E+000	-3.5724743E-006	1.1947955E-005
2	0	0	0	1	4.270210892125397E+002	-4.3638942E-001	-4.3656465E-001	-2.801920646137042E-002	2.000000000000000E+000	-3.6284896E-006	1.2232195E-005
2	0	0	0	1	4.270230892124891E+002	-4.4638559E-001	-4.4654259E-001	-2.795065965902815E-002	2.000000000000000E+000	-3.6844435E-006	1.2481160E-005
2	0	0	0	1	4.270250892124386E+002	-4.5638177E-001	-4.5653749E-001	-2.785755756000674E-002	2.000000000000000E+000	-3.7402524E-006	1.2718019E-005
2	0	0	0	1	4.270270892123881E+002	-4.6637794E-001	-4.6654698E-001	-2.784071184295400E-002	2.000000000000000E+000	-3.7959437E-006	1.2989000E-005
2	0	0	0	1	4.270290892123376E+002	-4.7637415E-001	-4.7656581E-001	-2.778163674318213E-002	2.000000000000000E+000	-3.8515491E-006	1.3239778E-005
2	0	0	0	1	4.270310892122870E+002	-4.8637035E-001	-4.8657158E-001	-2.767584006020724E-002	2.000000000000000E+000	-3.9070014E-006	1.3466277E-005
2	0	0	0	1	4.270330892122365E+002	-4.9636653E-001	-4.9653593E-001	-2.765657889702000E-002	2.000000000000000E+000	-3.9623233E-006	1.3732485E-005
2	0	0	0	1	4.270350892121860E+002	-5.0636274E-001	-5.0655466E-001	-2.769154165354032E-002	2.000000000000000E+000	-4.0176674E-006	1.4027280E-005
2	0	0	0	1	4.270370892121355E+002	-5.1635891E-001	-5.1652706E-001	-2.766191884802527E-002	2.000000000000000E+000	-4.0730288E-006	1.4288130E-005
2	0	0	0	1	4.270390892120849E+002	-5.2635509E-001	-5.2654231E-001	-2.779634116409891E-002	2.000000000000000E+000	-4.1285189E-006	1.4635950E-005
2	0	0	0	1	4.270410892120344E+002	-5.3635126E-001	-5.3652042E-001	-2.770200775315360E-002	2.000000000000000E+000	-4.1840312E-006	1.4862693E-005
2	0	0	0	1	4.270430892119839E+002	-5.4634750E-001	-5.4651856E-001	-2.772332496897437E-002	2.000000000000000E+000	-4.2394418E-006	1.5151311E-005
2	0	0	0	1	4.270450892119334E+002	-5.5634367E-001	-5.5652779E-001	-2.784422876963311E-002	2.000000000000000E+000	-4.2950169E-006	1.5496087E-005
2	0	0	0	1	4.270470892118828E+002	-5.6633985E-001	-5.6653059E-001	-2.796811984201968E-002	2.000000000000000E+000	-4.3508567E-006	1.5844795E-005
2	0	0	0	1	4.270490892118323E+002	-5.7633609E-001	-5.7651311E-001	-2.800339944587893E-002	2.000000000000000E+000	-4.4068315E-006	1.6144328E-005
2	0	0	0	1	4.270510892117818E+002	-5.8633226E-001	-5.8652312E-001	-2.821564811327132E-002	2.000000000000000E+000	-4.4630747E-006	1.6549129E-005
2	0	0	0	1	4.270528892117363E+002	-5.9532881E-001	-5.9549135E-001	-2.834528416964799E-002	2.000000000000000E+000	-4.5139814E-006	1.6879372E-005
2	0	0	0	1	4.270537892117136E+002	-5.9982693E-001	-6.0002363E-001	-2.858384512364864E-002	2.000000000000000E+000	-4.5395477E-006	1.7150982E-005
2	0	0	1	1	4.270539892117085E+002	-6.0082656E-001	-6.0098130E-001	-2.857087738811970E-002	2.000000000000000E+000	-4.5452621E-006	1.7170563E-005