EC-Lab ASCII FILE
Nb header lines : 53                          

Cyclic Voltammetry

Run on channel : 1 (SN 0696)
User : 
Electrode connection : standard
Ewe ctrl range : min = -10.00 V, max = 10.00 V
Ewe,I filtering : 50 kHz
Channel : Grounded
Acquisition started on : 05/17/2017 12:39:23
Saved on :
	File : 100 uM MB 10mM PB  second ito_02_CV_C01.mpr
	Directory : \\userfs\st659\w2k\EC-Lab\Data\ITO Characterisation 17-5-17\
	Host : 144.32.136.43
Device : SP-300 (SN 0182)
Address : USB
EC-Lab for windows v10.44 (software)
Internet server v10.44 (firmware)
Command interpretor v10.44 (firmware)
Electrode material : 
Initial state : 
Electrolyte : 
Comments : 
Cable : standard
Electrode surface area : 0.001 cm²
Characteristic mass : 0.001 g
Equivalent Weight : 0.000 g/eq.
Density : 0.000 g/cm3
Ei (V)              0.000               
vs.                 Eoc                 
dE/dt               50.000              
dE/dt unit          mV/s                
E1 (V)              0.100               
vs.                 Ref                 
Step percent        50                  
N                   10                  
E range min (V)     -10.000             
E range max (V)     10.000              
I Range             Auto                
I Range min         Unset               
I Range max         Unset               
I Range init        Unset               
Bandwidth           8                   
E2 (V)              -0.600              
vs.                 Ref                 
nc cycles           2                   
Reverse Scan        1                   
Ef (V)              0.000               
vs.                 Eoc                 

mode	ox/red	error	control changes	counter inc.	time/s	control/V	Ewe/V	<I>/mA	cycle number	(Q-Qo)/C	P/W
2	1	0	1	1	2.644683933189663E+002	-5.9982693E-001	-6.0003889E-001	-4.838699035139548E-003	2.000000000000000E+000	-3.9711227E-005	2.9034077E-006
2	1	0	0	1	2.645049933180417E+002	-5.9799451E-001	-5.9821552E-001	-4.649082273902393E-003	2.000000000000000E+000	-3.9880568E-005	2.7811532E-006
2	1	0	1	1	2.645715933163592E+002	-5.9466469E-001	-5.9492570E-001	-4.488362169801807E-003	2.000000000000000E+000	-4.0181836E-005	2.6702421E-006
2	1	0	0	1	2.646381933146768E+002	-5.9133369E-001	-5.9158635E-001	-4.352314654935033E-003	2.000000000000000E+000	-4.0473336E-005	2.5747700E-006
2	1	0	0	1	2.647049933129892E+002	-5.8799499E-001	-5.8823711E-001	-4.233341976693464E-003	2.000000000000000E+000	-4.0757215E-005	2.4902088E-006
2	1	0	1	1	2.647715933113068E+002	-5.8466291E-001	-5.8491051E-001	-4.125636632048638E-003	2.000000000000000E+000	-4.1032712E-005	2.4131282E-006
2	1	0	0	1	2.648381933096243E+002	-5.8133411E-001	-5.8157039E-001	-4.024439593050107E-003	2.000000000000000E+000	-4.1301275E-005	2.3404948E-006
2	1	0	1	1	2.649047933079419E+002	-5.7800543E-001	-5.7824826E-001	-3.930456574365145E-003	2.000000000000000E+000	-4.1563362E-005	2.2727797E-006
2	1	0	0	1	2.649713933062594E+002	-5.7467341E-001	-5.7492697E-001	-3.844173432378292E-003	2.000000000000000E+000	-4.1819487E-005	2.2101190E-006
2	1	0	0	1	2.650381933045719E+002	-5.7133466E-001	-5.7159126E-001	-3.761066615957903E-003	2.000000000000000E+000	-4.2070722E-005	2.1497929E-006
2	1	0	1	1	2.651047933028894E+002	-5.6800371E-001	-5.6824905E-001	-3.683222312631643E-003	2.000000000000000E+000	-4.2315856E-005	2.0929876E-006
2	1	0	0	1	2.651713933012070E+002	-5.6467378E-001	-5.6492162E-001	-3.609764615695122E-003	2.000000000000000E+000	-4.2555959E-005	2.0392340E-006
2	1	0	1	1	2.652379932995245E+002	-5.6134516E-001	-5.6159949E-001	-3.539250193672003E-003	2.000000000000000E+000	-4.2791260E-005	1.9876411E-006
2	1	0	1	1	2.653046932978395E+002	-5.5800861E-001	-5.5825967E-001	-3.472647224312904E-003	2.000000000000000E+000	-4.3022337E-005	1.9386389E-006
2	1	0	0	1	2.653713932961546E+002	-5.5467433E-001	-5.5493623E-001	-3.407235036548371E-003	2.000000000000000E+000	-4.3249020E-005	1.8907982E-006
2	1	0	1	1	2.654379932944721E+002	-5.5134445E-001	-5.5158579E-001	-3.343789551679036E-003	2.000000000000000E+000	-4.3471078E-005	1.8443868E-006
2	1	0	0	1	2.655045932927897E+002	-5.4801357E-001	-5.4824424E-001	-3.287185081063924E-003	2.000000000000000E+000	-4.3689171E-005	1.8021802E-006
2	1	0	1	1	2.655711932911072E+002	-5.4468483E-001	-5.4490125E-001	-3.228986865488552E-003	2.000000000000000E+000	-4.3903416E-005	1.7594790E-006
2	1	0	1	1	2.656378932894222E+002	-5.4134822E-001	-5.4156619E-001	-3.173586532191616E-003	2.000000000000000E+000	-4.4114244E-005	1.7187072E-006
2	1	0	0	1	2.657045932877372E+002	-5.3801399E-001	-5.3823388E-001	-3.122592048597377E-003	2.000000000000000E+000	-4.4321510E-005	1.6806848E-006
2	1	0	1	1	2.657711932860548E+002	-5.3468525E-001	-5.3491366E-001	-3.072682187596321E-003	2.000000000000000E+000	-4.4525139E-005	1.6436197E-006
2	1	0	0	1	2.658377932843723E+002	-5.3135324E-001	-5.3159326E-001	-3.026055459709610E-003	2.000000000000000E+000	-4.4725515E-005	1.6086307E-006
2	1	0	1	1	2.659043932826899E+002	-5.2802449E-001	-5.2825469E-001	-2.977007301374958E-003	2.000000000000000E+000	-4.4922679E-005	1.5726181E-006
2	1	0	1	1	2.659710932810049E+002	-5.2468908E-001	-5.2493113E-001	-2.930938689741196E-003	2.000000000000000E+000	-4.5117027E-005	1.5385409E-006
2	1	0	0	1	2.660377932793199E+002	-5.2135372E-001	-5.2157503E-001	-2.890377174535677E-003	2.000000000000000E+000	-4.5308458E-005	1.5075485E-006
2	1	0	1	1	2.661043932776374E+002	-5.1802498E-001	-5.1825297E-001	-2.846508964901972E-003	2.000000000000000E+000	-4.5496792E-005	1.4752118E-006
2	1	0	0	1	2.661709932759550E+002	-5.1469398E-001	-5.1493376E-001	-2.805994798094270E-003	2.000000000000000E+000	-4.5682351E-005	1.4449015E-006
2	1	0	1	1	2.662375932742725E+002	-5.1136416E-001	-5.1159084E-001	-2.766761323236423E-003	2.000000000000000E+000	-4.5865218E-005	1.4154498E-006
2	1	0	1	1	2.663042932725875E+002	-5.0802982E-001	-5.0826991E-001	-2.727341395859357E-003	2.000000000000000E+000	-4.6045734E-005	1.3862256E-006
2	1	0	0	1	2.663709932709025E+002	-5.0469345E-001	-5.0493169E-001	-2.690389632177451E-003	2.000000000000000E+000	-4.6223711E-005	1.3584630E-006
2	1	0	1	1	2.664375932692201E+002	-5.0136471E-001	-5.0161600E-001	-2.654204515779648E-003	2.000000000000000E+000	-4.6398996E-005	1.3313914E-006
2	1	0	0	1	2.665041932675376E+002	-4.9803481E-001	-4.9825647E-001	-2.617256133158032E-003	2.000000000000000E+000	-4.6571851E-005	1.3040648E-006
2	1	0	1	1	2.665707932658552E+002	-4.9470383E-001	-4.9492016E-001	-2.584624423040936E-003	2.000000000000000E+000	-4.6742392E-005	1.2791827E-006
2	1	0	1	1	2.666375932641677E+002	-4.9136510E-001	-4.9158853E-001	-2.550570381530309E-003	2.000000000000000E+000	-4.6911209E-005	1.2538311E-006
2	1	0	0	1	2.667041932624852E+002	-4.8803309E-001	-4.8827624E-001	-2.518827442898303E-003	2.000000000000000E+000	-4.7077319E-005	1.2298837E-006
2	1	0	1	1	2.667707932608027E+002	-4.8470435E-001	-4.8493552E-001	-2.486216691249085E-003	2.000000000000000E+000	-4.7241301E-005	1.2056548E-006
2	1	0	0	1	2.668373932591203E+002	-4.8137450E-001	-4.8161727E-001	-2.454332522882744E-003	2.000000000000000E+000	-4.7403148E-005	1.1820489E-006
2	1	0	1	1	2.669039932574378E+002	-4.7804353E-001	-4.7827163E-001	-2.424782147470760E-003	2.000000000000000E+000	-4.7562949E-005	1.1597045E-006
2	1	0	1	1	2.669707932557503E+002	-4.7470483E-001	-4.7494566E-001	-2.394661319520459E-003	2.000000000000000E+000	-4.7721242E-005	1.1373340E-006
2	1	0	0	1	2.670373932540679E+002	-4.7137386E-001	-4.7161397E-001	-2.366426515428205E-003	2.000000000000000E+000	-4.7877111E-005	1.1160398E-006
2	1	0	1	1	2.671039932523854E+002	-4.6804398E-001	-4.6828574E-001	-2.336272142092262E-003	2.000000000000000E+000	-4.8030997E-005	1.0940429E-006
2	1	0	0	1	2.671705932507030E+002	-4.6471527E-001	-4.6491402E-001	-2.309085330337307E-003	2.000000000000000E+000	-4.8182981E-005	1.0735262E-006
2	1	0	1	1	2.672371932490205E+002	-4.6138325E-001	-4.6160769E-001	-2.282056681480533E-003	2.000000000000000E+000	-4.8333164E-005	1.0534150E-006
2	1	0	1	1	2.673039932473330E+002	-4.5804453E-001	-4.5824918E-001	-2.253852550907686E-003	2.000000000000000E+000	-4.8481976E-005	1.0328260E-006
2	1	0	0	1	2.673705932456505E+002	-4.5471466E-001	-4.5491976E-001	-2.227800181590481E-003	2.000000000000000E+000	-4.8628553E-005	1.0134703E-006
2	1	0	1	1	2.674371932439681E+002	-4.5138371E-001	-4.5159823E-001	-2.201499804221241E-003	2.000000000000000E+000	-4.8773400E-005	9.9419344E-007
2	1	0	0	1	2.675037932422856E+002	-4.4805497E-001	-4.4827324E-001	-2.177983475072615E-003	2.000000000000000E+000	-4.8916558E-005	9.7633176E-007
2	1	0	0	1	2.675704932406006E+002	-4.4471845E-001	-4.4494230E-001	-2.151360523840042E-003	2.000000000000000E+000	-4.9058275E-005	9.5723124E-007
2	1	0	1	1	2.676371932389156E+002	-4.4138417E-001	-4.4162348E-001	-2.128343298616855E-003	2.000000000000000E+000	-4.9198290E-005	9.3992639E-007
2	1	0	0	1	2.677037932372332E+002	-4.3805435E-001	-4.3828332E-001	-2.102344037967248E-003	2.000000000000000E+000	-4.9336486E-005	9.2142233E-007
2	1	0	1	1	2.677703932355507E+002	-4.3472338E-001	-4.3495771E-001	-2.077955754785861E-003	2.000000000000000E+000	-4.9473019E-005	9.0382287E-007
2	1	0	0	1	2.678369932338683E+002	-4.3139467E-001	-4.3163043E-001	-2.056230237083533E-003	2.000000000000000E+000	-4.9608025E-005	8.8753154E-007
2	1	0	0	1	2.679036932321833E+002	-4.2805925E-001	-4.2830688E-001	-2.033855571976138E-003	2.000000000000000E+000	-4.9741757E-005	8.7111431E-007
2	1	0	1	1	2.679703932304983E+002	-4.2472383E-001	-4.2497247E-001	-2.012071717020666E-003	2.000000000000000E+000	-4.9874012E-005	8.5507509E-007
2	1	0	0	1	2.680369932288158E+002	-4.2139512E-001	-4.2162964E-001	-1.990269859748020E-003	2.000000000000000E+000	-5.0004626E-005	8.3915677E-007
2	1	0	1	1	2.681035932271334E+002	-4.1806307E-001	-4.1830733E-001	-1.967945654643609E-003	2.000000000000000E+000	-5.0133760E-005	8.2320611E-007
2	1	0	0	1	2.681701932254509E+002	-4.1473436E-001	-4.1497552E-001	-1.945243164710418E-003	2.000000000000000E+000	-5.0261388E-005	8.0722828E-007
2	1	0	0	1	2.682368932237659E+002	-4.1140002E-001	-4.1161573E-001	-1.923664112916729E-003	2.000000000000000E+000	-5.0387745E-005	7.9181041E-007
2	1	0	1	1	2.683035932220810E+002	-4.0806356E-001	-4.0829149E-001	-1.901493231736252E-003	2.000000000000000E+000	-5.0512652E-005	7.7636349E-007
2	1	0	0	1	2.683701932203985E+002	-4.0473482E-001	-4.0495950E-001	-1.881382717706707E-003	2.000000000000000E+000	-5.0635987E-005	7.6188383E-007
2	1	0	1	1	2.684367932187160E+002	-4.0140387E-001	-4.0165016E-001	-1.859112100346689E-003	2.000000000000000E+000	-5.0757899E-005	7.4671266E-007
2	1	0	0	1	2.685033932170336E+002	-3.9807400E-001	-3.9832866E-001	-1.839106492925346E-003	2.000000000000000E+000	-5.0878421E-005	7.3256882E-007
2	1	0	0	1	2.685700932153486E+002	-3.9473972E-001	-3.9499152E-001	-1.817406040331605E-003	2.000000000000000E+000	-5.0997733E-005	7.1785996E-007
2	1	0	1	1	2.686367932136636E+002	-3.9140326E-001	-3.9165798E-001	-1.796905375034089E-003	2.000000000000000E+000	-5.1115607E-005	7.0377234E-007
2	1	0	0	1	2.687033932119812E+002	-3.8807449E-001	-3.8831475E-001	-1.777673504748034E-003	2.000000000000000E+000	-5.1232000E-005	6.9029687E-007
2	1	0	1	1	2.687699932102987E+002	-3.8474467E-001	-3.8500407E-001	-1.757841028207894E-003	2.000000000000000E+000	-5.1347077E-005	6.7677598E-007
2	1	0	0	1	2.688365932086163E+002	-3.8141370E-001	-3.8165432E-001	-1.737475326653134E-003	2.000000000000000E+000	-5.1460785E-005	6.6311497E-007
2	1	0	0	1	2.689033932069287E+002	-3.7807500E-001	-3.7830567E-001	-1.717796698098809E-003	2.000000000000000E+000	-5.1573508E-005	6.4985221E-007
2	1	0	1	1	2.689699932052463E+002	-3.7474293E-001	-3.7497357E-001	-1.697884756363755E-003	2.000000000000000E+000	-5.1684598E-005	6.3666192E-007
2	1	0	0	1	2.690365932035638E+002	-3.7141418E-001	-3.7164709E-001	-1.678960023527834E-003	2.000000000000000E+000	-5.1794377E-005	6.2398061E-007
2	1	0	1	1	2.691031932018814E+002	-3.6808547E-001	-3.6829501E-001	-1.659030100557363E-003	2.000000000000000E+000	-5.1902862E-005	6.1101252E-007
2	1	0	0	1	2.691697932001989E+002	-3.6475340E-001	-3.6498594E-001	-1.640028089095559E-003	2.000000000000000E+000	-5.2010080E-005	5.9858718E-007
2	1	0	0	1	2.692365931985114E+002	-3.6141467E-001	-3.6164632E-001	-1.622144548521987E-003	2.000000000000000E+000	-5.2116382E-005	5.8664261E-007
2	1	0	1	1	2.693031931968289E+002	-3.5808372E-001	-3.5832402E-001	-1.602289292287251E-003	2.000000000000000E+000	-5.2221072E-005	5.7413877E-007
2	1	0	0	1	2.693697931951465E+002	-3.5475388E-001	-3.5501361E-001	-1.583695194286182E-003	2.000000000000000E+000	-5.2324511E-005	5.6223337E-007
2	1	0	1	1	2.694363931934640E+002	-3.5142514E-001	-3.5166571E-001	-1.564512849097076E-003	2.000000000000000E+000	-5.2426676E-005	5.5018552E-007
2	1	0	0	1	2.695029931917816E+002	-3.4809312E-001	-3.4833962E-001	-1.545515294922264E-003	2.000000000000000E+000	-5.2527575E-005	5.3836419E-007
2	1	0	0	1	2.695697931900941E+002	-3.4475440E-001	-3.4500396E-001	-1.528139767395804E-003	2.000000000000000E+000	-5.2627558E-005	5.2721430E-007
2	1	0	1	1	2.696363931884116E+002	-3.4142452E-001	-3.4166470E-001	-1.508054516143557E-003	2.000000000000000E+000	-5.2725991E-005	5.1524898E-007
2	1	0	0	1	2.697029931867291E+002	-3.3809358E-001	-3.3831152E-001	-1.488545358982366E-003	2.000000000000000E+000	-5.2823085E-005	5.0359205E-007
2	1	0	1	1	2.697695931850467E+002	-3.3476484E-001	-3.3498144E-001	-1.471244524462137E-003	2.000000000000000E+000	-5.2918967E-005	4.9283960E-007
2	1	0	1	1	2.698362931833617E+002	-3.3142829E-001	-3.3165580E-001	-1.451578219861783E-003	2.000000000000000E+000	-5.3013762E-005	4.8142431E-007
2	1	0	0	1	2.699029931816767E+002	-3.2809407E-001	-3.2829368E-001	-1.433210316989493E-003	2.000000000000000E+000	-5.3107324E-005	4.7051390E-007
2	1	0	1	1	2.699695931799943E+002	-3.2476532E-001	-3.2494986E-001	-1.415332044627869E-003	2.000000000000000E+000	-5.3199507E-005	4.5991194E-007
2	1	0	0	1	2.700361931783118E+002	-3.2143325E-001	-3.2163078E-001	-1.396496921302112E-003	2.000000000000000E+000	-5.3290467E-005	4.4915637E-007
2	1	0	1	1	2.701027931766293E+002	-3.1810454E-001	-3.1832775E-001	-1.377426236931635E-003	2.000000000000000E+000	-5.3380190E-005	4.3847299E-007
2	1	0	1	1	2.701694931749444E+002	-3.1476912E-001	-3.1498259E-001	-1.358495638372682E-003	2.000000000000000E+000	-5.3468815E-005	4.2790248E-007
2	1	0	0	1	2.702361931732594E+002	-3.1143376E-001	-3.1166950E-001	-1.339866029058712E-003	2.000000000000000E+000	-5.3556159E-005	4.1759537E-007
2	1	0	1	1	2.703027931715769E+002	-3.0810502E-001	-3.0832887E-001	-1.319868518870056E-003	2.000000000000000E+000	-5.3642078E-005	4.0695357E-007
2	1	0	0	1	2.703693931698945E+002	-3.0477405E-001	-3.0498844E-001	-1.300025945065517E-003	2.000000000000000E+000	-5.3726679E-005	3.9649288E-007
2	1	0	1	1	2.704359931682120E+002	-3.0144420E-001	-3.0166087E-001	-1.280844376787153E-003	2.000000000000000E+000	-5.3809985E-005	3.8638063E-007
2	1	0	1	1	2.705026931665270E+002	-2.9810992E-001	-2.9832336E-001	-1.260209597714588E-003	2.000000000000000E+000	-5.3892072E-005	3.7594995E-007
2	1	0	0	1	2.705693931648420E+002	-2.9477340E-001	-2.9496112E-001	-1.239089675386437E-003	2.000000000000000E+000	-5.3972763E-005	3.6548329E-007
2	1	0	1	1	2.706359931631596E+002	-2.9144469E-001	-2.9162371E-001	-1.218607976102411E-003	2.000000000000000E+000	-5.4051972E-005	3.5537499E-007
2	1	0	0	1	2.707025931614771E+002	-2.8811374E-001	-2.8830275E-001	-1.197504757420729E-003	2.000000000000000E+000	-5.4129800E-005	3.4524390E-007
2	1	0	1	1	2.707691931597947E+002	-2.8478390E-001	-2.8497863E-001	-1.175185222724667E-003	2.000000000000000E+000	-5.4206143E-005	3.3490267E-007
2	1	0	1	1	2.708359931581072E+002	-2.8144515E-001	-2.8162047E-001	-1.153622286751765E-003	2.000000000000000E+000	-5.4281285E-005	3.2488364E-007
2	1	0	0	1	2.709025931564247E+002	-2.7811310E-001	-2.7830440E-001	-1.130532718565291E-003	2.000000000000000E+000	-5.4354688E-005	3.1463222E-007
2	1	0	1	1	2.709691931547422E+002	-2.7478436E-001	-2.7497506E-001	-1.107222796614734E-003	2.000000000000000E+000	-5.4426557E-005	3.0445867E-007
2	1	0	0	1	2.710357931530598E+002	-2.7145451E-001	-2.7165693E-001	-1.082645568373040E-003	2.000000000000000E+000	-5.4496810E-005	2.9410816E-007
2	1	0	1	1	2.711023931513773E+002	-2.6812354E-001	-2.6831722E-001	-1.056632503984072E-003	2.000000000000000E+000	-5.4565371E-005	2.8351269E-007
2	1	0	1	1	2.711691931496898E+002	-2.6478481E-001	-2.6498407E-001	-1.029000867735165E-003	2.000000000000000E+000	-5.4632357E-005	2.7266884E-007
2	1	0	0	1	2.712357931480074E+002	-2.6145390E-001	-2.6165095E-001	-1.001933917973499E-003	2.000000000000000E+000	-5.4697335E-005	2.6215696E-007
2	1	0	1	1	2.713023931463249E+002	-2.5812405E-001	-2.5832006E-001	-9.732072535854203E-004	2.000000000000000E+000	-5.4760469E-005	2.5139897E-007
2	1	0	0	1	2.713689931446424E+002	-2.5479531E-001	-2.5499290E-001	-9.439695276129786E-004	2.000000000000000E+000	-5.4821652E-005	2.4070553E-007
2	1	0	1	1	2.714355931429600E+002	-2.5146326E-001	-2.5166893E-001	-9.115719206384144E-004	2.000000000000000E+000	-5.4880766E-005	2.2941433E-007
2	1	0	1	1	2.715023931412725E+002	-2.4812454E-001	-2.4833982E-001	-8.793969465947064E-004	2.000000000000000E+000	-5.4937900E-005	2.1838927E-007
2	1	0	0	1	2.715689931395900E+002	-2.4479356E-001	-2.4500428E-001	-8.430366695771716E-004	2.000000000000000E+000	-5.4992546E-005	2.0654760E-007
2	1	0	1	1	2.716355931379076E+002	-2.4146374E-001	-2.4166894E-001	-8.047852242866523E-004	2.000000000000000E+000	-5.5044733E-005	1.9449159E-007
2	1	0	0	1	2.717021931362251E+002	-2.3813498E-001	-2.3833767E-001	-7.664274839490272E-004	2.000000000000000E+000	-5.5094333E-005	1.8266854E-007
2	1	0	0	1	2.717688931345401E+002	-2.3479848E-001	-2.3500328E-001	-7.235878791135011E-004	2.000000000000000E+000	-5.5141321E-005	1.7004552E-007
2	1	0	1	1	2.718355931328551E+002	-2.3146421E-001	-2.3167463E-001	-6.793438710215333E-004	2.000000000000000E+000	-5.5185395E-005	1.5738674E-007
2	1	0	0	1	2.719021931311727E+002	-2.2813436E-001	-2.2834878E-001	-6.308110691224805E-004	2.000000000000000E+000	-5.5226268E-005	1.4404493E-007
2	1	0	1	1	2.719687931294902E+002	-2.2480342E-001	-2.2502308E-001	-5.797204572486284E-004	2.000000000000000E+000	-5.5263841E-005	1.3045047E-007
2	1	0	0	1	2.720353931278078E+002	-2.2147469E-001	-2.2167401E-001	-5.227080755005956E-004	2.000000000000000E+000	-5.5297802E-005	1.1587080E-007
2	1	0	0	1	2.721220931256175E+002	-2.1714102E-001	-2.1734445E-001	-4.422633043696198E-004	2.000000000000000E+000	-5.5336091E-005	9.6123472E-008
2	1	0	1	1	2.722087931234273E+002	-2.1280466E-001	-2.1300435E-001	-3.551681453239745E-004	2.000000000000000E+000	-5.5369055E-005	7.5652359E-008
2	1	0	0	1	2.722753931217449E+002	-2.0947370E-001	-2.0964879E-001	-2.862786827147060E-004	2.000000000000000E+000	-5.5388449E-005	6.0017982E-008
2	1	0	1	1	2.723419931200624E+002	-2.0614387E-001	-2.0632006E-001	-2.158120257406432E-004	2.000000000000000E+000	-5.5403230E-005	4.4526349E-008
2	1	0	0	1	2.724085931183799E+002	-2.0281513E-001	-2.0300435E-001	-1.415909710345657E-004	2.000000000000000E+000	-5.5413209E-005	2.8743582E-008
2	1	0	0	1	2.724752931166950E+002	-1.9947861E-001	-1.9964619E-001	-6.432221524798527E-005	2.000000000000000E+000	-5.5418132E-005	1.2841685E-008
2	1	0	1	1	2.725419931150100E+002	-1.9614434E-001	-1.9631752E-001	1.231097321125991E-005	2.000000000000000E+000	-5.5417910E-005	2.4168598E-009
2	1	0	0	1	2.726085931133275E+002	-1.9281451E-001	-1.9298375E-001	9.046182475754092E-005	2.000000000000000E+000	-5.5412555E-005	1.7457662E-008
2	1	0	1	1	2.726751931116451E+002	-1.8948355E-001	-1.8965557E-001	1.647921449630860E-004	2.000000000000000E+000	-5.5402114E-005	3.1253748E-008
2	1	0	0	1	2.727417931099626E+002	-1.8615483E-001	-1.8634003E-001	2.381958834903864E-004	2.000000000000000E+000	-5.5386761E-005	4.4385430E-008
2	1	0	0	1	2.728084931082776E+002	-1.8281829E-001	-1.8300058E-001	3.084617458716315E-004	2.000000000000000E+000	-5.5366592E-005	5.6448677E-008
2	1	0	1	1	2.728751931065926E+002	-1.7948404E-001	-1.7965946E-001	3.743939282771849E-004	2.000000000000000E+000	-5.5341861E-005	6.7263407E-008
2	1	0	0	1	2.729417931049102E+002	-1.7615531E-001	-1.7632686E-001	4.313674522364863E-004	2.000000000000000E+000	-5.5313099E-005	7.6061667E-008
2	1	0	1	1	2.730083931032277E+002	-1.7282325E-001	-1.7301038E-001	4.833957281235252E-004	2.000000000000000E+000	-5.5280743E-005	8.3632479E-008
2	1	0	0	1	2.730749931015453E+002	-1.6949452E-001	-1.6967389E-001	5.263817588405219E-004	2.000000000000000E+000	-5.5245204E-005	8.9313239E-008
2	1	0	0	1	2.731416930998603E+002	-1.6615911E-001	-1.6632591E-001	5.635303931154877E-004	2.000000000000000E+000	-5.5206965E-005	9.3729703E-008
2	1	0	1	1	2.732083930981753E+002	-1.6282371E-001	-1.6297351E-001	5.879885373297972E-004	2.000000000000000E+000	-5.5166689E-005	9.5826557E-008
2	1	0	0	1	2.732749930964928E+002	-1.5949498E-001	-1.5964092E-001	6.053571162789981E-004	2.000000000000000E+000	-5.5125078E-005	9.6639766E-008
2	1	0	1	1	2.733415930948104E+002	-1.5616404E-001	-1.5630899E-001	6.192633828049424E-004	2.000000000000000E+000	-5.5082430E-005	9.6796434E-008
2	1	0	0	1	2.734081930931279E+002	-1.5283419E-001	-1.5295476E-001	6.220469914845570E-004	2.000000000000000E+000	-5.5039258E-005	9.5145047E-008
2	1	0	0	1	2.734748930914429E+002	-1.4949989E-001	-1.4964071E-001	6.197967538770152E-004	2.000000000000000E+000	-5.4996020E-005	9.2746824E-008
2	1	0	1	1	2.735415930897580E+002	-1.4616340E-001	-1.4630394E-001	6.120783826331806E-004	2.000000000000000E+000	-5.4953140E-005	8.9549474E-008
2	1	0	0	1	2.736081930880755E+002	-1.4283466E-001	-1.4296849E-001	6.004974807575251E-004	2.000000000000000E+000	-5.4910925E-005	8.5852221E-008
2	1	0	1	1	2.736747930863930E+002	-1.3950372E-001	-1.3964182E-001	5.867082831415814E-004	2.000000000000000E+000	-5.4869550E-005	8.1929016E-008
2	1	0	0	1	2.737413930847106E+002	-1.3617387E-001	-1.3630927E-001	5.683068374323580E-004	2.000000000000000E+000	-5.4829248E-005	7.7465486E-008
2	1	0	0	1	2.738081930830231E+002	-1.3283515E-001	-1.3297424E-001	5.486215732832742E-004	2.000000000000000E+000	-5.4790082E-005	7.2952538E-008
2	1	0	1	1	2.738747930813406E+002	-1.2950309E-001	-1.2966812E-001	5.288116914063980E-004	2.000000000000000E+000	-5.4752345E-005	6.8570017E-008
2	1	0	0	1	2.739413930796582E+002	-1.2617436E-001	-1.2630714E-001	5.093419058992011E-004	2.000000000000000E+000	-5.4715907E-005	6.4333520E-008
2	1	0	1	1	2.740079930779757E+002	-1.2284449E-001	-1.2296867E-001	4.872917741758727E-004	2.000000000000000E+000	-5.4680822E-005	5.9921618E-008
2	1	0	0	1	2.740745930762932E+002	-1.1951356E-001	-1.1965661E-001	4.665926026014029E-004	2.000000000000000E+000	-5.4647160E-005	5.5830892E-008
2	1	0	0	1	2.741413930746057E+002	-1.1617482E-001	-1.1631915E-001	4.479818400823267E-004	2.000000000000000E+000	-5.4614720E-005	5.2108867E-008
2	1	0	1	1	2.742079930729233E+002	-1.1284388E-001	-1.1296988E-001	4.288164772990060E-004	2.000000000000000E+000	-5.4583616E-005	4.8443344E-008
2	1	0	0	1	2.742745930712408E+002	-1.0951404E-001	-1.0964564E-001	4.101749060636496E-004	2.000000000000000E+000	-5.4553766E-005	4.4973891E-008
2	1	0	1	1	2.743411930695584E+002	-1.0618531E-001	-1.0630388E-001	3.940159497722079E-004	2.000000000000000E+000	-5.4525088E-005	4.1885425E-008
2	1	0	0	1	2.744077930678759E+002	-1.0285324E-001	-1.0299141E-001	3.781088841659230E-004	2.000000000000000E+000	-5.4497476E-005	3.8941966E-008
2	1	0	0	1	2.744745930661884E+002	-9.9514507E-002	-9.9666946E-002	3.626828193609224E-004	2.000000000000000E+000	-5.4470809E-005	3.6147490E-008
2	1	0	1	1	2.745411930645059E+002	-9.6183553E-002	-9.6332386E-002	3.509680224584658E-004	2.000000000000000E+000	-5.4445140E-005	3.3809588E-008
2	1	0	0	1	2.746077930628235E+002	-9.2853725E-002	-9.2988797E-002	3.380753588855987E-004	2.000000000000000E+000	-5.4420303E-005	3.1437221E-008
2	1	0	1	1	2.746743930611410E+002	-8.9524992E-002	-8.9665763E-002	3.259682718117721E-004	2.000000000000000E+000	-5.4396278E-005	2.9228193E-008
2	1	0	1	1	2.747410930594560E+002	-8.6188465E-002	-8.6335771E-002	3.167300430125019E-004	2.000000000000000E+000	-5.4372944E-005	2.7345132E-008
2	1	0	0	1	2.748077930577711E+002	-8.2854189E-002	-8.3025701E-002	3.050947567368573E-004	2.000000000000000E+000	-5.4350319E-005	2.5330706E-008
2	1	0	1	1	2.748743930560886E+002	-7.9524361E-002	-7.9689994E-002	2.969663806750016E-004	2.000000000000000E+000	-5.4328360E-005	2.3665249E-008
2	1	0	0	1	2.749409930544061E+002	-7.6193392E-002	-7.6363869E-002	2.886116021435640E-004	2.000000000000000E+000	-5.4306922E-005	2.2039499E-008
2	1	0	1	1	2.750075930527237E+002	-7.2864667E-002	-7.3033780E-002	2.807785229661424E-004	2.000000000000000E+000	-5.4286003E-005	2.0506317E-008
2	1	0	1	1	2.750742930510387E+002	-6.9529273E-002	-6.9688722E-002	2.742888386117375E-004	2.000000000000000E+000	-5.4265543E-005	1.9114839E-008
2	1	0	0	1	2.751409930493537E+002	-6.6193879E-002	-6.6362582E-002	2.683679648026302E-004	2.000000000000000E+000	-5.4245520E-005	1.7809590E-008
2	1	0	1	1	2.752075930476713E+002	-6.2865146E-002	-6.3026339E-002	2.616972449384345E-004	2.000000000000000E+000	-5.4225926E-005	1.6493820E-008
2	1	0	0	1	2.752741930459888E+002	-5.9533082E-002	-5.9698168E-002	2.573223675985349E-004	2.000000000000000E+000	-5.4206692E-005	1.5361675E-008
2	1	0	1	1	2.753407930443063E+002	-5.6204356E-002	-5.6377012E-002	2.520984290145861E-004	2.000000000000000E+000	-5.4187778E-005	1.4212556E-008
2	1	0	1	1	2.754074930426214E+002	-5.2868959E-002	-5.3044796E-002	2.490789049608814E-004	2.000000000000000E+000	-5.4169130E-005	1.3212340E-008
2	1	0	0	1	2.754741930409364E+002	-4.9533565E-002	-4.9695000E-002	2.442241300393108E-004	2.000000000000000E+000	-5.4150722E-005	1.2136718E-008
2	1	0	1	1	2.755407930392539E+002	-4.6204835E-002	-4.6369944E-002	2.411193383522713E-004	2.000000000000000E+000	-5.4132590E-005	1.1180690E-008
2	1	0	0	1	2.756073930375715E+002	-4.2873882E-002	-4.3030232E-002	2.377150160443025E-004	2.000000000000000E+000	-5.4114687E-005	1.0228932E-008
2	1	0	1	1	2.756739930358890E+002	-3.9544042E-002	-3.9667770E-002	2.359205134582160E-004	2.000000000000000E+000	-5.4096930E-005	9.3584411E-009
2	1	0	1	1	2.757406930342040E+002	-3.6209758E-002	-3.6353935E-002	2.328777623722527E-004	2.000000000000000E+000	-5.4079348E-005	8.4660225E-009
2	1	0	0	1	2.758073930325190E+002	-3.2873251E-002	-3.3028957E-002	2.312092209015276E-004	2.000000000000000E+000	-5.4061922E-005	7.6365989E-009
2	1	0	1	1	2.758739930308366E+002	-2.9544519E-002	-2.9695719E-002	2.287108186261552E-004	2.000000000000000E+000	-5.4044653E-005	6.7917325E-009
2	1	0	0	1	2.759405930291541E+002	-2.6214676E-002	-2.6353277E-002	2.264508142243737E-004	2.000000000000000E+000	-5.4027518E-005	5.9677210E-009
2	1	0	1	1	2.760071930274717E+002	-2.2883728E-002	-2.3036545E-002	2.252957839381747E-004	2.000000000000000E+000	-5.4010496E-005	5.1900364E-009
2	1	0	1	1	2.760739930257841E+002	-1.9544998E-002	-1.9707510E-002	2.239194179401440E-004	2.000000000000000E+000	-5.3993528E-005	4.4128941E-009
2	1	0	0	1	2.761405930241017E+002	-1.6212935E-002	-1.6377136E-002	2.237767752541838E-004	2.000000000000000E+000	-5.3976662E-005	3.6648227E-009
2	1	0	1	1	2.762071930224192E+002	-1.2884203E-002	-1.3046592E-002	2.225358422318544E-004	2.000000000000000E+000	-5.3959866E-005	2.9033345E-009
2	1	0	0	1	2.762737930207368E+002	-9.5554739E-003	-9.7172568E-003	2.223507415014176E-004	2.000000000000000E+000	-5.3943091E-005	2.1606392E-009
2	1	0	1	1	2.763403930190543E+002	-6.2234094E-003	-6.3864128E-003	2.216641203742465E-004	2.000000000000000E+000	-5.3926338E-005	1.4156386E-009
2	1	0	1	1	2.764071930173668E+002	-2.8846820E-003	-3.0510295E-003	2.217927899883826E-004	2.000000000000000E+000	-5.3909549E-005	6.7669637E-010
2	1	0	0	1	2.764737930156844E+002	4.5853746E-004	2.9031222E-004	2.216377848460868E-004	2.000000000000000E+000	-5.3892767E-005	6.4344155E-011
2	1	0	1	1	2.765403930140019E+002	3.7761109E-003	3.6408796E-003	2.211056124258523E-004	2.000000000000000E+000	-5.3875992E-005	8.0501894E-010
2	1	0	0	1	2.766069930123194E+002	7.1048401E-003	6.9901175E-003	2.204054003778050E-004	2.000000000000000E+000	-5.3859258E-005	1.5406596E-009
2	1	0	1	1	2.766735930106370E+002	1.0436902E-002	1.0307135E-002	2.216176794212128E-004	2.000000000000000E+000	-5.3842563E-005	2.2842435E-009
2	1	0	1	1	2.767403930089495E+002	1.3775627E-002	1.3666695E-002	2.227369675051657E-004	2.000000000000000E+000	-5.3825748E-005	3.0440781E-009
2	1	0	0	1	2.768069930072670E+002	1.7105468E-002	1.6994750E-002	2.220349102151006E-004	2.000000000000000E+000	-5.3808973E-005	3.7734278E-009
2	1	0	1	1	2.768735930055846E+002	2.0436417E-002	2.0317860E-002	2.231247264493736E-004	2.000000000000000E+000	-5.3792170E-005	4.5334168E-009
2	1	0	0	1	2.769401930039021E+002	2.3765149E-002	2.3630910E-002	2.238618638014630E-004	2.000000000000000E+000	-5.3775337E-005	5.2900595E-009
2	1	0	0	1	2.770068930022171E+002	2.7101655E-002	2.6969286E-002	2.244474653998242E-004	2.000000000000000E+000	-5.3758416E-005	6.0531877E-009
2	1	0	1	1	2.770735930005321E+002	3.0435937E-002	3.0294115E-002	2.264392603844208E-004	2.000000000000000E+000	-5.3741416E-005	6.8597767E-009
2	1	0	0	1	2.771401929988497E+002	3.3764660E-002	3.3624541E-002	2.275636491806940E-004	2.000000000000000E+000	-5.3724350E-005	7.6517237E-009
2	1	0	1	1	2.772067929971672E+002	3.7096724E-002	3.6981005E-002	2.287602247972546E-004	2.000000000000000E+000	-5.3707208E-005	8.4597831E-009
2	1	0	0	1	2.772733929954848E+002	4.0425453E-002	4.0288199E-002	2.290778216912840E-004	2.000000000000000E+000	-5.3690004E-005	9.2291330E-009
2	1	0	0	1	2.773400929937998E+002	4.3760844E-002	4.3640148E-002	2.314069272147967E-004	2.000000000000000E+000	-5.3672669E-005	1.0098632E-008
2	1	0	1	1	2.774067929921148E+002	4.7096238E-002	4.6983533E-002	2.338931735897370E-004	2.000000000000000E+000	-5.3655200E-005	1.0989128E-008
2	1	0	0	1	2.774733929904323E+002	5.0424974E-002	5.0313592E-002	2.346501452695747E-004	2.000000000000000E+000	-5.3637668E-005	1.1806092E-008
2	1	0	1	1	2.775399929887499E+002	5.3757027E-002	5.3656146E-002	2.364714359830793E-004	2.000000000000000E+000	-5.3620017E-005	1.2688146E-008
2	1	0	0	1	2.776065929870674E+002	5.7085760E-002	5.6983385E-002	2.385013744420450E-004	2.000000000000000E+000	-5.3602234E-005	1.3590616E-008
2	1	0	0	1	2.776732929853824E+002	6.0420036E-002	6.0320694E-002	2.401751451174021E-004	2.000000000000000E+000	-5.3584314E-005	1.4487531E-008
2	1	0	1	1	2.777399929836974E+002	6.3756555E-002	6.3659407E-002	2.420662579273379E-004	2.000000000000000E+000	-5.3566288E-005	1.5409794E-008
2	1	0	0	1	2.778065929820150E+002	6.7085281E-002	6.6968933E-002	2.442644027848904E-004	2.000000000000000E+000	-5.3548152E-005	1.6358126E-008
2	1	0	1	1	2.778731929803325E+002	7.0416227E-002	7.0314273E-002	2.460740537086187E-004	2.000000000000000E+000	-5.3529839E-005	1.7302519E-008
2	1	0	0	1	2.779397929786501E+002	7.3746070E-002	7.3627166E-002	2.479866930161034E-004	2.000000000000000E+000	-5.3511387E-005	1.8258557E-008
2	1	0	0	1	2.780065929769626E+002	7.7084795E-002	7.6979786E-002	2.511695514920594E-004	2.000000000000000E+000	-5.3492742E-005	1.9334978E-008
2	1	0	1	1	2.780731929752801E+002	8.0416858E-002	8.0310278E-002	2.533727353183767E-004	2.000000000000000E+000	-5.3473963E-005	2.0348434E-008
2	1	0	0	1	2.781397929735977E+002	8.3745584E-002	8.3635099E-002	2.556974414409966E-004	2.000000000000000E+000	-5.3455035E-005	2.1385281E-008
2	1	0	1	1	2.782063929719152E+002	8.7075427E-002	8.6966641E-002	2.583957687214609E-004	2.000000000000000E+000	-5.3435928E-005	2.2471813E-008
2	1	0	0	1	2.782729929702327E+002	9.0406381E-002	9.0283096E-002	2.613537801637415E-004	2.000000000000000E+000	-5.3416639E-005	2.3595828E-008
2	1	0	0	1	2.783397929685452E+002	9.3745112E-002	9.3626164E-002	2.640434437584695E-004	2.000000000000000E+000	-5.3397125E-005	2.4721375E-008
2	1	0	1	1	2.784063929668628E+002	9.7077169E-002	9.6960276E-002	2.668308351939834E-004	2.000000000000000E+000	-5.3377466E-005	2.5871991E-008
2	1	0	0	1	2.784496929657689E+002	9.9242166E-002	9.9135242E-002	2.688595560691013E-004	2.000000000000000E+000	-5.3364587E-005	2.6653458E-008
2	0	0	1	1	2.784635929654178E+002	9.9906117E-002	9.9791698E-002	2.647982844791838E-004	2.000000000000000E+000	-5.3360469E-005	2.6424670E-008
2	0	0	1	1	2.785003929644881E+002	9.8070115E-002	9.7945556E-002	1.429209581471479E-004	2.000000000000000E+000	-5.3356016E-005	1.3998473E-008
2	0	0	0	1	2.785669929628057E+002	9.4738066E-002	9.4604120E-002	8.280358637470183E-005	2.000000000000000E+000	-5.3350625E-005	7.8335605E-009
2	0	0	1	1	2.786335929611232E+002	9.1409333E-002	9.1260731E-002	3.818256081608530E-005	2.000000000000000E+000	-5.3348660E-005	3.4845684E-009
2	0	0	0	1	2.787001929594408E+002	8.8079497E-002	8.7929063E-002	-3.156796707894578E-006	2.000000000000000E+000	-5.3349577E-005	2.7757419E-010
2	0	0	1	1	2.787667929577583E+002	8.4748544E-002	8.4600478E-002	-3.982656555244471E-005	2.000000000000000E+000	-5.3353047E-005	3.3693466E-009
2	0	0	1	1	2.788335929560708E+002	8.1409819E-002	8.1279553E-002	-7.431611401030516E-005	2.000000000000000E+000	-5.3358912E-005	6.0403806E-009
2	0	0	0	1	2.789001929543883E+002	7.8077748E-002	7.7943973E-002	-1.076600481505895E-004	2.000000000000000E+000	-5.3367025E-005	8.3914520E-009
2	0	0	1	1	2.789667929527059E+002	7.4749023E-002	7.4617565E-002	-1.389163658994555E-004	2.000000000000000E+000	-5.3377291E-005	1.0365601E-008
2	0	0	0	1	2.790333929510234E+002	7.1420297E-002	7.1292005E-002	-1.682941002040155E-004	2.000000000000000E+000	-5.3389565E-005	1.1998024E-008
2	0	0	1	1	2.790999929493410E+002	6.8088226E-002	6.7975268E-002	-1.968656802613486E-004	2.000000000000000E+000	-5.3403779E-005	1.3381998E-008
2	0	0	1	1	2.791667929476534E+002	6.4749509E-002	6.4636923E-002	-2.245941993946586E-004	2.000000000000000E+000	-5.3419906E-005	1.4517078E-008
2	0	0	0	1	2.792333929459710E+002	6.1418556E-002	6.1319984E-002	-2.514082365888543E-004	2.000000000000000E+000	-5.3437805E-005	1.5416349E-008
2	0	0	1	1	2.792999929442885E+002	5.8088712E-002	5.7994500E-002	-2.772489095654072E-004	2.000000000000000E+000	-5.3457439E-005	1.6078912E-008
2	0	0	0	1	2.793665929426061E+002	5.4759979E-002	5.4661624E-002	-3.030181622390099E-004	2.000000000000000E+000	-5.3478787E-005	1.6563465E-008
2	0	0	0	1	2.794332929409211E+002	5.1423475E-002	5.1305629E-002	-3.272511762412028E-004	2.000000000000000E+000	-5.3501815E-005	1.6789828E-008
2	0	0	1	1	2.794999929392361E+002	4.8089195E-002	4.7960196E-002	-3.511622605814439E-004	2.000000000000000E+000	-5.3526463E-005	1.6841812E-008
2	0	0	0	1	2.795665929375537E+002	4.4759355E-002	4.4608448E-002	-3.746427816258802E-004	2.000000000000000E+000	-5.3552627E-005	1.6712233E-008
2	0	0	1	1	2.796331929358712E+002	4.1428402E-002	4.1272007E-002	-3.955381503734099E-004	2.000000000000000E+000	-5.3580308E-005	1.6324654E-008
2	0	0	0	1	2.796997929341887E+002	3.8099676E-002	3.7941366E-002	-4.175060974436857E-004	2.000000000000000E+000	-5.3609419E-005	1.5840753E-008
2	0	0	0	1	2.797664929325038E+002	3.4763169E-002	3.4594867E-002	-4.392526037488107E-004	2.000000000000000E+000	-5.3640011E-005	1.5195885E-008
2	0	0	1	1	2.798331929308188E+002	3.1428888E-002	3.1266078E-002	-4.594423850253775E-004	2.000000000000000E+000	-5.3671996E-005	1.4364962E-008
2	0	0	0	1	2.798997929291363E+002	2.8100159E-002	2.7941335E-002	-4.793049855707587E-004	2.000000000000000E+000	-5.3705287E-005	1.3392421E-008
2	0	0	1	1	2.799663929274539E+002	2.4768097E-002	2.4606470E-002	-4.996082329410726E-004	2.000000000000000E+000	-5.3739917E-005	1.2293595E-008
2	0	0	0	1	2.800329929257714E+002	2.1439368E-002	2.1279369E-002	-5.185870975106272E-004	2.000000000000000E+000	-5.3775846E-005	1.1035206E-008
2	0	0	0	1	2.800996929240864E+002	1.8103974E-002	1.7940529E-002	-5.376637574563710E-004	2.000000000000000E+000	-5.3813063E-005	9.6459720E-009
2	0	0	1	1	2.801663929224014E+002	1.4768582E-002	1.4624910E-002	-5.562833232880728E-004	2.000000000000000E+000	-5.3851549E-005	8.1355935E-009
2	0	0	0	1	2.802329929207190E+002	1.1439851E-002	1.1272714E-002	-5.745845147355445E-004	2.000000000000000E+000	-5.3891214E-005	6.4771273E-009
2	0	0	1	1	2.802995929190365E+002	8.1089009E-003	7.9321554E-003	-5.925117983889665E-004	2.000000000000000E+000	-5.3932097E-005	4.6998956E-009
2	0	0	0	1	2.803661929173541E+002	4.7790608E-003	4.5819380E-003	-6.096206532880915E-004	2.000000000000000E+000	-5.3974116E-005	2.7932441E-009
2	0	0	0	1	2.804328929156691E+002	1.4447815E-003	1.2328807E-003	-6.260025252188932E-004	2.000000000000000E+000	-5.4017321E-005	7.7178647E-010
2	0	0	1	1	2.804995929139841E+002	-1.8917271E-003	-2.1224723E-003	-6.427823196979163E-004	2.000000000000000E+000	-5.4061642E-005	1.3642877E-009
2	0	0	0	1	2.805661929123016E+002	-5.2204579E-003	-5.4367376E-003	-6.598547857076822E-004	2.000000000000000E+000	-5.4107029E-005	3.5874572E-009
2	0	0	1	1	2.806327929106192E+002	-8.5514104E-003	-8.7682800E-003	-6.766387425447078E-004	2.000000000000000E+000	-5.4153526E-005	5.9329581E-009
2	0	0	0	1	2.806993929089367E+002	-1.1881252E-002	-1.2102474E-002	-6.929924378266932E-004	2.000000000000000E+000	-5.4201118E-005	8.3869223E-009
2	0	0	0	1	2.807661929072492E+002	-1.5219980E-002	-1.5433306E-002	-7.086845560907548E-004	2.000000000000000E+000	-5.4249893E-005	1.0937345E-008
2	0	0	1	1	2.808327929055667E+002	-1.8552044E-002	-1.8767556E-002	-7.235739912486681E-004	2.000000000000000E+000	-5.4299559E-005	1.3579715E-008
2	0	0	0	1	2.808993929038843E+002	-2.1880774E-002	-2.2082211E-002	-7.389774131752562E-004	2.000000000000000E+000	-5.4350221E-005	1.6318255E-008
2	0	0	1	1	2.809659929022018E+002	-2.5210613E-002	-2.5406349E-002	-7.538310309693329E-004	2.000000000000000E+000	-5.4401909E-005	1.9152095E-008
2	0	0	0	1	2.810325929005194E+002	-2.8541567E-002	-2.8730268E-002	-7.680946998354001E-004	2.000000000000000E+000	-5.4454573E-005	2.2067566E-008
2	0	0	0	1	2.810993928988319E+002	-3.1880297E-002	-3.2085206E-002	-7.832202457604808E-004	2.000000000000000E+000	-5.4508389E-005	2.5129783E-008
2	0	0	1	1	2.811659928971494E+002	-3.5211246E-002	-3.5419673E-002	-7.970680986538487E-004	2.000000000000000E+000	-5.4563006E-005	2.8231891E-008
2	0	0	0	1	2.812325928954670E+002	-3.8541090E-002	-3.8742207E-002	-8.118334251131746E-004	2.000000000000000E+000	-5.4618569E-005	3.1452217E-008
2	0	0	1	1	2.812991928937845E+002	-4.1869819E-002	-4.2077933E-002	-8.257404404069663E-004	2.000000000000000E+000	-5.4675103E-005	3.4745451E-008
2	0	0	0	1	2.813657928921020E+002	-4.5201886E-002	-4.5425698E-002	-8.400002398570262E-004	2.000000000000000E+000	-5.4732576E-005	3.8157598E-008
2	0	0	0	1	2.814325928904145E+002	-4.8540607E-002	-4.8757646E-002	-8.532879156869563E-004	2.000000000000000E+000	-5.4791119E-005	4.1604309E-008
2	0	0	1	1	2.814991928887321E+002	-5.1870454E-002	-5.2101146E-002	-8.678109421402305E-004	2.000000000000000E+000	-5.4850410E-005	4.5213945E-008
2	0	0	0	1	2.815657928870496E+002	-5.5201408E-002	-5.5445250E-002	-8.811283217970058E-004	2.000000000000000E+000	-5.4910615E-005	4.8854382E-008
2	0	0	1	1	2.816323928853672E+002	-5.8530133E-002	-5.8759198E-002	-8.938920710901488E-004	2.000000000000000E+000	-5.4971701E-005	5.2524381E-008
2	0	0	1	1	2.816990928836822E+002	-6.1866641E-002	-6.2098105E-002	-9.078605155105929E-004	2.000000000000000E+000	-5.5033739E-005	5.6376418E-008
2	0	0	0	1	2.817657928819972E+002	-6.5200932E-002	-6.5419674E-002	-9.204836268104470E-004	2.000000000000000E+000	-5.5096665E-005	6.0217737E-008
2	0	0	1	1	2.818323928803147E+002	-6.8530768E-002	-6.8753131E-002	-9.332636058787380E-004	2.000000000000000E+000	-5.5160370E-005	6.4164794E-008
2	0	0	0	1	2.819156928782104E+002	-7.2696514E-002	-7.2915643E-002	-9.461939636512921E-004	2.000000000000000E+000	-5.5242072E-005	6.8992343E-008
2	0	0	0	1	2.819989928761061E+002	-7.6859817E-002	-7.7042617E-002	-9.562499609713305E-004	2.000000000000000E+000	-5.5324821E-005	7.3671998E-008
2	0	0	1	1	2.820655928744236E+002	-8.0191880E-002	-8.0377996E-002	-9.686279433151028E-004	2.000000000000000E+000	-5.5391429E-005	7.7856370E-008
2	0	0	0	1	2.821321928727411E+002	-8.3520606E-002	-8.3715811E-002	-9.814701324610889E-004	2.000000000000000E+000	-5.5458870E-005	8.2164568E-008
2	0	0	0	1	2.821988928710562E+002	-8.6856000E-002	-8.7022081E-002	-9.946568095895057E-004	2.000000000000000E+000	-5.5527264E-005	8.6557108E-008
2	0	0	1	1	2.822655928693712E+002	-9.0191402E-002	-9.0360321E-002	-1.007246525828846E-003	2.000000000000000E+000	-5.5596520E-005	9.1015117E-008
2	0	0	0	1	2.823321928676887E+002	-9.3520127E-002	-9.3692951E-002	-1.020196535945678E-003	2.000000000000000E+000	-5.5666544E-005	9.5585222E-008
2	0	0	1	1	2.823987928660063E+002	-9.6851081E-002	-9.7013161E-002	-1.033194198516510E-003	2.000000000000000E+000	-5.5737448E-005	1.0023344E-007
2	0	0	0	1	2.824653928643238E+002	-1.0018092E-001	-1.0033514E-001	-1.046765304361742E-003	2.000000000000000E+000	-5.5809225E-005	1.0502735E-007
2	0	0	0	1	2.825320928626388E+002	-1.0351520E-001	-1.0369253E-001	-1.059803892119911E-003	2.000000000000000E+000	-5.5881996E-005	1.0989375E-007
2	0	0	1	1	2.825987928609538E+002	-1.0685170E-001	-1.0701028E-001	-1.072287821761664E-003	2.000000000000000E+000	-5.5955628E-005	1.1474582E-007
2	0	0	0	1	2.826653928592714E+002	-1.1018044E-001	-1.1033151E-001	-1.086841395135742E-003	2.000000000000000E+000	-5.6030058E-005	1.1991284E-007
2	0	0	1	1	2.827319928575889E+002	-1.1351140E-001	-1.1366033E-001	-1.100651032633692E-003	2.000000000000000E+000	-5.6105444E-005	1.2510036E-007
2	0	0	0	1	2.827985928559065E+002	-1.1684124E-001	-1.1699484E-001	-1.115812944212704E-003	2.000000000000000E+000	-5.6181805E-005	1.3054436E-007
2	0	0	0	1	2.828653928542190E+002	-1.2017997E-001	-1.2033088E-001	-1.130758411584720E-003	2.000000000000000E+000	-5.6259370E-005	1.3606515E-007
2	0	0	1	1	2.829319928525365E+002	-1.2351203E-001	-1.2366835E-001	-1.146529516057319E-003	2.000000000000000E+000	-5.6337733E-005	1.4178941E-007
2	0	0	0	1	2.829985928508540E+002	-1.2684076E-001	-1.2700470E-001	-1.163292492515698E-003	2.000000000000000E+000	-5.6417204E-005	1.4774361E-007
2	0	0	1	1	2.830651928491716E+002	-1.3017061E-001	-1.3034223E-001	-1.180535487380195E-003	2.000000000000000E+000	-5.6497825E-005	1.5387363E-007
2	0	0	0	1	2.831317928474891E+002	-1.3350156E-001	-1.3367972E-001	-1.198824592223058E-003	2.000000000000000E+000	-5.6579582E-005	1.6025854E-007
2	0	0	0	1	2.831985928458016E+002	-1.3684028E-001	-1.3701507E-001	-1.217889816559280E-003	2.000000000000000E+000	-5.6662851E-005	1.6686927E-007
2	0	0	1	1	2.832651928441192E+002	-1.4017123E-001	-1.4036323E-001	-1.238295748677794E-003	2.000000000000000E+000	-5.6747242E-005	1.7381119E-007
2	0	0	0	1	2.833317928424367E+002	-1.4350107E-001	-1.4368089E-001	-1.260807097610395E-003	2.000000000000000E+000	-5.6833062E-005	1.8115388E-007
2	0	0	1	1	2.833983928407542E+002	-1.4682980E-001	-1.4701775E-001	-1.284883228092724E-003	2.000000000000000E+000	-5.6920439E-005	1.8890064E-007
2	0	0	0	1	2.834649928390718E+002	-1.5016188E-001	-1.5032865E-001	-1.312094609780366E-003	2.000000000000000E+000	-5.7009511E-005	1.9724541E-007
2	0	0	0	1	2.835317928373843E+002	-1.5350060E-001	-1.5364832E-001	-1.340906106830783E-003	2.000000000000000E+000	-5.7100708E-005	2.0602796E-007
2	0	0	1	1	2.835983928357018E+002	-1.5683155E-001	-1.5700075E-001	-1.374245642610438E-003	2.000000000000000E+000	-5.7193709E-005	2.1575759E-007
2	0	0	0	1	2.836649928340194E+002	-1.6016141E-001	-1.6032431E-001	-1.409725668598979E-003	2.000000000000000E+000	-5.7289031E-005	2.2601328E-007
2	0	0	1	1	2.837315928323369E+002	-1.6349013E-001	-1.6368169E-001	-1.448887138445208E-003	2.000000000000000E+000	-5.7386809E-005	2.3715629E-007
2	0	0	1	1	2.837982928306519E+002	-1.6682662E-001	-1.6701292E-001	-1.492702080273750E-003	2.000000000000000E+000	-5.7487479E-005	2.4930051E-007
2	0	0	0	1	2.838649928289669E+002	-1.7016093E-001	-1.7036074E-001	-1.540438056021198E-003	2.000000000000000E+000	-5.7591220E-005	2.6243018E-007
2	0	0	1	1	2.839315928272845E+002	-1.7349078E-001	-1.7368460E-001	-1.593418746367368E-003	2.000000000000000E+000	-5.7698140E-005	2.7675230E-007
2	0	0	0	1	2.839981928256020E+002	-1.7682172E-001	-1.7700417E-001	-1.648759589339072E-003	2.000000000000000E+000	-5.7808662E-005	2.9183732E-007
2	0	0	1	1	2.840647928239196E+002	-1.8015043E-001	-1.8034764E-001	-1.710839760623233E-003	2.000000000000000E+000	-5.7923149E-005	3.0854591E-007
2	0	0	1	1	2.841314928222346E+002	-1.8348582E-001	-1.8370348E-001	-1.779605859606188E-003	2.000000000000000E+000	-5.8042173E-005	3.2691980E-007
2	0	0	0	1	2.841981928205496E+002	-1.8682124E-001	-1.8701005E-001	-1.851003841340356E-003	2.000000000000000E+000	-5.8165871E-005	3.4615633E-007
2	0	0	1	1	2.842647928188671E+002	-1.9014995E-001	-1.9033450E-001	-1.927715220360775E-003	2.000000000000000E+000	-5.8294336E-005	3.6691071E-007
2	0	0	0	1	2.843313928171847E+002	-1.9348204E-001	-1.9366571E-001	-2.011858404387104E-003	2.000000000000000E+000	-5.8428173E-005	3.8962798E-007
2	0	0	1	1	2.843979928155022E+002	-1.9681077E-001	-1.9699745E-001	-2.095648013323528E-003	2.000000000000000E+000	-5.8567588E-005	4.1283732E-007
2	0	0	1	1	2.844646928138172E+002	-2.0014614E-001	-2.0033196E-001	-2.184743688379370E-003	2.000000000000000E+000	-5.8712991E-005	4.3767398E-007
2	0	0	0	1	2.845313928121323E+002	-2.0348154E-001	-2.0366782E-001	-2.278429374443322E-003	2.000000000000000E+000	-5.8864487E-005	4.6404276E-007
2	0	0	1	1	2.845979928104498E+002	-2.0681027E-001	-2.0698807E-001	-2.367862590296262E-003	2.000000000000000E+000	-5.9021892E-005	4.9011931E-007
2	0	0	0	1	2.846645928087673E+002	-2.1014123E-001	-2.1033642E-001	-2.460566520771625E-003	2.000000000000000E+000	-5.9185360E-005	5.1754677E-007
2	0	0	1	1	2.847311928070849E+002	-2.1347108E-001	-2.1368772E-001	-2.548991266841202E-003	2.000000000000000E+000	-5.9354879E-005	5.4468813E-007
2	0	0	1	1	2.847978928053999E+002	-2.1680534E-001	-2.1702014E-001	-2.632569266738426E-003	2.000000000000000E+000	-5.9530310E-005	5.7132053E-007
2	0	0	0	1	2.848645928037149E+002	-2.2014186E-001	-2.2034727E-001	-2.712798588962794E-003	2.000000000000000E+000	-5.9711227E-005	5.9775778E-007
2	0	0	1	1	2.849311928020325E+002	-2.2347060E-001	-2.2368982E-001	-2.786528210877298E-003	2.000000000000000E+000	-5.9897015E-005	6.2331799E-007
2	0	0	0	1	2.849977928003500E+002	-2.2680044E-001	-2.2702876E-001	-2.852221425677037E-003	2.000000000000000E+000	-6.0087437E-005	6.4753630E-007
2	0	0	1	1	2.850643927986675E+002	-2.3013139E-001	-2.3035076E-001	-2.905323307934977E-003	2.000000000000000E+000	-6.0281716E-005	6.6924343E-007
2	0	0	1	1	2.851311927969800E+002	-2.3347011E-001	-2.3367780E-001	-2.948840911189979E-003	2.000000000000000E+000	-6.0479844E-005	6.8907866E-007
2	0	0	0	1	2.851977927952976E+002	-2.3680218E-001	-2.3700429E-001	-2.982568092879015E-003	2.000000000000000E+000	-6.0679948E-005	7.0688145E-007
2	0	0	1	1	2.852643927936151E+002	-2.4013090E-001	-2.4033053E-001	-3.004995795712284E-003	2.000000000000000E+000	-6.0881925E-005	7.2219223E-007
2	0	0	0	1	2.853309927919327E+002	-2.4345963E-001	-2.4366137E-001	-3.022835131432854E-003	2.000000000000000E+000	-6.1085222E-005	7.3654815E-007
2	0	0	1	1	2.853975927902502E+002	-2.4679171E-001	-2.4700785E-001	-3.034468523352801E-003	2.000000000000000E+000	-6.1289466E-005	7.4953755E-007
2	0	0	1	1	2.854643927885627E+002	-2.5013044E-001	-2.5034818E-001	-3.031951476950630E-003	2.000000000000000E+000	-6.1494582E-005	7.5904353E-007
2	0	0	0	1	2.855309927868802E+002	-2.5346139E-001	-2.5368378E-001	-3.028879867096435E-003	2.000000000000000E+000	-6.1698884E-005	7.6837767E-007
2	0	0	1	1	2.855975927851978E+002	-2.5679123E-001	-2.5699216E-001	-3.018705688592541E-003	2.000000000000000E+000	-6.1902734E-005	7.7578369E-007
2	0	0	0	1	2.856641927835153E+002	-2.6011994E-001	-2.6031834E-001	-3.008721326906147E-003	2.000000000000000E+000	-6.2105973E-005	7.8322535E-007
2	0	0	1	1	2.857307927818329E+002	-2.6345199E-001	-2.6364928E-001	-2.993714761249926E-003	2.000000000000000E+000	-6.2308354E-005	7.8929077E-007
2	0	0	1	1	2.857975927801454E+002	-2.6679075E-001	-2.6700467E-001	-2.975898502580780E-003	2.000000000000000E+000	-6.2510262E-005	7.9457880E-007
2	0	0	0	1	2.858641927784629E+002	-2.7012059E-001	-2.7031520E-001	-2.956078987091347E-003	2.000000000000000E+000	-6.2710300E-005	7.9907306E-007
2	0	0	1	1	2.859307927767804E+002	-2.7345154E-001	-2.7364549E-001	-2.938774537188833E-003	2.000000000000000E+000	-6.2909123E-005	8.0418238E-007
2	0	0	0	1	2.859973927750980E+002	-2.7678025E-001	-2.7698103E-001	-2.916795829671040E-003	2.000000000000000E+000	-6.3106665E-005	8.0789710E-007
2	0	0	0	1	2.860640927734130E+002	-2.8011677E-001	-2.8030643E-001	-2.897407123635551E-003	2.000000000000000E+000	-6.3303087E-005	8.1216183E-007
2	0	0	1	1	2.861307927717280E+002	-2.8345108E-001	-2.8363284E-001	-2.878674810528389E-003	2.000000000000000E+000	-6.3498228E-005	8.1648670E-007
2	0	0	0	1	2.861973927700456E+002	-2.8677976E-001	-2.8697377E-001	-2.862875211126589E-003	2.000000000000000E+000	-6.3691979E-005	8.2157010E-007
2	0	0	1	1	2.862639927683631E+002	-2.9011187E-001	-2.9031888E-001	-2.844712141852938E-003	2.000000000000000E+000	-6.3884567E-005	8.2587366E-007
2	0	0	0	1	2.863305927666806E+002	-2.9344061E-001	-2.9362717E-001	-2.827774322243806E-003	2.000000000000000E+000	-6.4076019E-005	8.3031136E-007
2	0	0	0	1	2.863972927649957E+002	-2.9677597E-001	-2.9698649E-001	-2.814237867262828E-003	2.000000000000000E+000	-6.4266707E-005	8.3579062E-007
2	0	0	1	1	2.864639927633107E+002	-3.0011138E-001	-3.0032849E-001	-2.801735680021830E-003	2.000000000000000E+000	-6.4456523E-005	8.4144108E-007
2	0	0	0	1	2.865305927616282E+002	-3.0344012E-001	-3.0365258E-001	-2.787731955062683E-003	2.000000000000000E+000	-6.4645152E-005	8.4650202E-007
2	0	0	1	1	2.865971927599458E+002	-3.0677217E-001	-3.0699199E-001	-2.777795721901684E-003	2.000000000000000E+000	-6.4833002E-005	8.5276105E-007
2	0	0	0	1	2.866637927582633E+002	-3.1010091E-001	-3.1031606E-001	-2.766683910128029E-003	2.000000000000000E+000	-6.5020118E-005	8.5854646E-007
2	0	0	0	1	2.867304927565783E+002	-3.1343517E-001	-3.1366324E-001	-2.756352394728545E-003	2.000000000000000E+000	-6.5206856E-005	8.6456646E-007
2	0	0	1	1	2.867971927548933E+002	-3.1677169E-001	-3.1698576E-001	-2.749990027815483E-003	2.000000000000000E+000	-6.5393033E-005	8.7170764E-007
2	0	0	0	1	2.868637927532109E+002	-3.2010043E-001	-3.2030258E-001	-2.740458489164502E-003	2.000000000000000E+000	-6.5578395E-005	8.7777590E-007
2	0	0	1	1	2.869303927515284E+002	-3.2343140E-001	-3.2364082E-001	-2.735855232124725E-003	2.000000000000000E+000	-6.5763277E-005	8.8543442E-007
2	0	0	0	1	2.869969927498460E+002	-3.2676122E-001	-3.2695127E-001	-2.730994540651142E-003	2.000000000000000E+000	-6.5947861E-005	8.9290211E-007
2	0	0	0	1	2.870637927481584E+002	-3.3009994E-001	-3.3030218E-001	-2.727422724752002E-003	2.000000000000000E+000	-6.6132714E-005	9.0087366E-007
2	0	0	1	1	2.871303927464760E+002	-3.3343199E-001	-3.3365363E-001	-2.726030608521897E-003	2.000000000000000E+000	-6.6316832E-005	9.0955001E-007
2	0	0	0	1	2.871969927447935E+002	-3.3676070E-001	-3.3696797E-001	-2.723138439796532E-003	2.000000000000000E+000	-6.6500797E-005	9.1761046E-007
2	0	0	1	1	2.872635927431111E+002	-3.4009057E-001	-3.4033903E-001	-2.722539756840076E-003	2.000000000000000E+000	-6.6684683E-005	9.2658655E-007
2	0	0	0	1	2.873301927414286E+002	-3.4342155E-001	-3.4366894E-001	-2.722373798392637E-003	2.000000000000000E+000	-6.6868583E-005	9.3559532E-007
2	0	0	0	1	2.873969927397411E+002	-3.4676027E-001	-3.4700873E-001	-2.723076571739251E-003	2.000000000000000E+000	-6.7052984E-005	9.4493134E-007
2	0	0	1	1	2.874635927380587E+002	-3.5009122E-001	-3.5033554E-001	-2.725768365582994E-003	2.000000000000000E+000	-6.7236979E-005	9.5493351E-007
2	0	0	0	1	2.875301927363762E+002	-3.5342106E-001	-3.5367039E-001	-2.727252690518522E-003	2.000000000000000E+000	-6.7421141E-005	9.6454846E-007
2	0	0	1	1	2.875967927346937E+002	-3.5674980E-001	-3.5699630E-001	-2.729182508915497E-003	2.000000000000000E+000	-6.7605433E-005	9.7430802E-007
2	0	0	0	1	2.876633927330113E+002	-3.6008185E-001	-3.6033022E-001	-2.734031857738989E-003	2.000000000000000E+000	-6.7789952E-005	9.8515432E-007
2	0	0	0	1	2.877301927313238E+002	-3.6342058E-001	-3.6365584E-001	-2.738772887714485E-003	2.000000000000000E+000	-6.7975285E-005	9.9597071E-007
2	0	0	1	1	2.877967927296413E+002	-3.6675152E-001	-3.6697891E-001	-2.744584723038977E-003	2.000000000000000E+000	-6.8160436E-005	1.0072047E-006
2	0	0	0	1	2.878633927279589E+002	-3.7008137E-001	-3.7028673E-001	-2.748853240135112E-003	2.000000000000000E+000	-6.8345893E-005	1.0178638E-006
2	0	0	1	1	2.879299927262764E+002	-3.7341011E-001	-3.7363294E-001	-2.754318883656438E-003	2.000000000000000E+000	-6.8531728E-005	1.0291043E-006
2	0	0	1	1	2.879966927245914E+002	-3.7674659E-001	-3.7695271E-001	-2.760851526840542E-003	2.000000000000000E+000	-6.8718204E-005	1.0407105E-006
2	0	0	0	1	2.880633927229064E+002	-3.8008085E-001	-3.8030958E-001	-2.768457302690368E-003	2.000000000000000E+000	-6.8905145E-005	1.0528709E-006
2	0	0	1	1	2.881299927212240E+002	-3.8341075E-001	-3.8364464E-001	-2.775677102400752E-003	2.000000000000000E+000	-6.9092312E-005	1.0648737E-006
2	0	0	0	1	2.881965927195415E+002	-3.8674167E-001	-3.8699746E-001	-2.781884054801283E-003	2.000000000000000E+000	-6.9279980E-005	1.0765821E-006
2	0	0	1	1	2.882631927178591E+002	-3.9007041E-001	-3.9032343E-001	-2.792620838782480E-003	2.000000000000000E+000	-6.9468166E-005	1.0900253E-006
2	0	0	1	1	2.883298927161741E+002	-3.9340580E-001	-3.9365593E-001	-2.801088610050035E-003	2.000000000000000E+000	-6.9657239E-005	1.1026651E-006
2	0	0	0	1	2.883965927144891E+002	-3.9674124E-001	-3.9700493E-001	-2.808280352207961E-003	2.000000000000000E+000	-6.9846887E-005	1.1149011E-006
2	0	0	1	1	2.884631927128066E+002	-4.0006995E-001	-4.0030602E-001	-2.818915099228304E-003	2.000000000000000E+000	-7.0036840E-005	1.1284287E-006
2	0	0	0	1	2.885297927111242E+002	-4.0340197E-001	-4.0365627E-001	-2.827618075740466E-003	2.000000000000000E+000	-7.0227477E-005	1.1413857E-006
2	0	0	1	1	2.885963927094417E+002	-4.0673071E-001	-4.0697369E-001	-2.838300879989104E-003	2.000000000000000E+000	-7.0418726E-005	1.1551138E-006
2	0	0	1	1	2.886630927077567E+002	-4.1006613E-001	-4.1030580E-001	-2.849365806804030E-003	2.000000000000000E+000	-7.0610979E-005	1.1691113E-006
2	0	0	0	1	2.887297927060717E+002	-4.1340154E-001	-4.1364974E-001	-2.859817828229731E-003	2.000000000000000E+000	-7.0803988E-005	1.1829629E-006
2	0	0	1	1	2.887963927043893E+002	-4.1673025E-001	-4.1698265E-001	-2.870299991881951E-003	2.000000000000000E+000	-7.0997397E-005	1.1968654E-006
2	0	0	0	1	2.888629927027068E+002	-4.2006120E-001	-4.2031515E-001	-2.882989094755142E-003	2.000000000000000E+000	-7.1191578E-005	1.2117640E-006
2	0	0	1	1	2.889295927010244E+002	-4.2339104E-001	-4.2363808E-001	-2.894829889858459E-003	2.000000000000000E+000	-7.1386552E-005	1.2263602E-006
2	0	0	1	1	2.889962926993394E+002	-4.2672533E-001	-4.2695612E-001	-2.907371406152735E-003	2.000000000000000E+000	-7.1582632E-005	1.2413200E-006
2	0	0	0	1	2.890629926976544E+002	-4.3006185E-001	-4.3028343E-001	-2.920575005184996E-003	2.000000000000000E+000	-7.1779556E-005	1.2566750E-006
2	0	0	1	1	2.891295926959720E+002	-4.3339059E-001	-4.3359730E-001	-2.934774928041138E-003	2.000000000000000E+000	-7.1977061E-005	1.2725105E-006
2	0	0	0	1	2.891961926942895E+002	-4.3672043E-001	-4.3694574E-001	-2.948924102219676E-003	2.000000000000000E+000	-7.2175528E-005	1.2885198E-006
2	0	0	1	1	2.892627926926070E+002	-4.4005138E-001	-4.4028267E-001	-2.963382405062040E-003	2.000000000000000E+000	-7.2374969E-005	1.3047260E-006
2	0	0	1	1	2.893295926909195E+002	-4.4339013E-001	-4.4360054E-001	-2.978075388226448E-003	2.000000000000000E+000	-7.2575938E-005	1.3210758E-006
2	0	0	0	1	2.893961926892371E+002	-4.4672215E-001	-4.4693950E-001	-2.991910127561538E-003	2.000000000000000E+000	-7.2777293E-005	1.3372028E-006
2	0	0	1	1	2.894627926875546E+002	-4.5005089E-001	-4.5026132E-001	-3.009204633097978E-003	2.000000000000000E+000	-7.2979681E-005	1.3549285E-006
2	0	0	0	1	2.895293926858722E+002	-4.5338073E-001	-4.5358300E-001	-3.024523748062204E-003	2.000000000000000E+000	-7.3183153E-005	1.3718726E-006
2	0	0	1	1	2.895959926841897E+002	-4.5671171E-001	-4.5692146E-001	-3.041835152464194E-003	2.000000000000000E+000	-7.3387753E-005	1.3898798E-006
2	0	0	1	1	2.896627926825022E+002	-4.6005040E-001	-4.6027055E-001	-3.059510879053345E-003	2.000000000000000E+000	-7.3594128E-005	1.4082028E-006
2	0	0	0	1	2.897293926808197E+002	-4.6338135E-001	-4.6357980E-001	-3.076410132549940E-003	2.000000000000000E+000	-7.3800999E-005	1.4261616E-006
2	0	0	1	1	2.897959926791373E+002	-4.6671119E-001	-4.6692666E-001	-3.094828449962151E-003	2.000000000000000E+000	-7.4009113E-005	1.4450579E-006
2	0	0	0	1	2.898625926774548E+002	-4.7003987E-001	-4.7029364E-001	-3.113099081124851E-003	2.000000000000000E+000	-7.4218471E-005	1.4640707E-006
2	0	0	1	1	2.899291926757724E+002	-4.7337198E-001	-4.7361198E-001	-3.132712211125287E-003	2.000000000000000E+000	-7.4429088E-005	1.4836901E-006
2	0	0	1	1	2.899959926740848E+002	-4.7671071E-001	-4.7694156E-001	-3.152601652483710E-003	2.000000000000000E+000	-7.4641604E-005	1.5036068E-006
2	0	0	0	1	2.900625926724024E+002	-4.8004055E-001	-4.8028120E-001	-3.173954232652210E-003	2.000000000000000E+000	-7.4854899E-005	1.5243905E-006
2	0	0	1	1	2.901291926707199E+002	-4.8337150E-001	-4.8360640E-001	-3.193375304245454E-003	2.000000000000000E+000	-7.5069547E-005	1.5443368E-006
2	0	0	0	1	2.901957926690375E+002	-4.8670027E-001	-4.8693353E-001	-3.216848061963113E-003	2.000000000000000E+000	-7.5285614E-005	1.5663912E-006
2	0	0	0	1	2.902624926673525E+002	-4.9003670E-001	-4.9026421E-001	-3.238383024472203E-003	2.000000000000000E+000	-7.5503500E-005	1.5876633E-006
2	0	0	1	1	2.903291926656675E+002	-4.9337104E-001	-4.9359611E-001	-3.261251550538465E-003	2.000000000000000E+000	-7.5722914E-005	1.6097410E-006
2	0	0	0	1	2.903957926639850E+002	-4.9670085E-001	-4.9691153E-001	-3.287364311706124E-003	2.000000000000000E+000	-7.5943608E-005	1.6335292E-006
2	0	0	1	1	2.904623926623026E+002	-5.0003183E-001	-5.0026739E-001	-3.312688711239652E-003	2.000000000000000E+000	-7.6166005E-005	1.6572301E-006
2	0	0	0	1	2.905289926606201E+002	-5.0336057E-001	-5.0358820E-001	-3.340871548778809E-003	2.000000000000000E+000	-7.6390170E-005	1.6824235E-006
2	0	0	0	1	2.905956926589352E+002	-5.0669593E-001	-5.0693232E-001	-3.366123807478180E-003	2.000000000000000E+000	-7.6616474E-005	1.7063969E-006
2	0	0	1	1	2.906623926572502E+002	-5.1003134E-001	-5.1028907E-001	-3.393619205124043E-003	2.000000000000000E+000	-7.6844561E-005	1.7317268E-006
2	0	0	0	1	2.907289926555677E+002	-5.1336008E-001	-5.1360130E-001	-3.423110595782867E-003	2.000000000000000E+000	-7.7074183E-005	1.7581141E-006
2	0	0	1	1	2.907955926538853E+002	-5.1669216E-001	-5.1692539E-001	-3.452271979796369E-003	2.000000000000000E+000	-7.7305755E-005	1.7845671E-006
2	0	0	0	1	2.908621926522028E+002	-5.2002090E-001	-5.2024609E-001	-3.484874031551054E-003	2.000000000000000E+000	-7.7539407E-005	1.8129921E-006
2	0	0	0	1	2.909288926505178E+002	-5.2335519E-001	-5.2357107E-001	-3.515051310415761E-003	2.000000000000000E+000	-7.7775527E-005	1.8403792E-006
2	0	0	1	1	2.909955926488328E+002	-5.2669168E-001	-5.2692080E-001	-3.548109348854037E-003	2.000000000000000E+000	-7.8013771E-005	1.8695727E-006
2	0	0	0	1	2.910621926471504E+002	-5.3002042E-001	-5.3025448E-001	-3.584552244024868E-003	2.000000000000000E+000	-7.8253921E-005	1.9007249E-006
2	0	0	1	1	2.911287926454679E+002	-5.3335136E-001	-5.3356946E-001	-3.617659543967089E-003	2.000000000000000E+000	-7.8496414E-005	1.9302727E-006
2	0	0	0	1	2.911953926437855E+002	-5.3668123E-001	-5.3689808E-001	-3.655641556174443E-003	2.000000000000000E+000	-7.8741279E-005	1.9627068E-006
2	0	0	0	1	2.912621926420979E+002	-5.4001987E-001	-5.4023331E-001	-3.695093111101397E-003	2.000000000000000E+000	-7.8989426E-005	1.9962124E-006
2	0	0	1	1	2.913287926404155E+002	-5.4335195E-001	-5.4357237E-001	-3.734134703806812E-003	2.000000000000000E+000	-7.9239449E-005	2.0297725E-006
2	0	0	0	1	2.913953926387330E+002	-5.4668069E-001	-5.4691482E-001	-3.774502602433307E-003	2.000000000000000E+000	-7.9492122E-005	2.0643313E-006
2	0	0	1	1	2.914619926370506E+002	-5.5001056E-001	-5.5022687E-001	-3.818638186597716E-003	2.000000000000000E+000	-7.9747653E-005	2.1011174E-006
2	0	0	0	1	2.915285926353681E+002	-5.5334151E-001	-5.5359238E-001	-3.863354450708543E-003	2.000000000000000E+000	-8.0006168E-005	2.1387236E-006
2	0	0	0	1	2.915953926336806E+002	-5.5668026E-001	-5.5691808E-001	-3.909195237990548E-003	2.000000000000000E+000	-8.0268401E-005	2.1771016E-006
2	0	0	1	1	2.916619926319981E+002	-5.6001234E-001	-5.6025225E-001	-3.954376942170414E-003	2.000000000000000E+000	-8.0532875E-005	2.2154486E-006
2	0	0	0	1	2.917285926303157E+002	-5.6334102E-001	-5.6357950E-001	-4.004504559407854E-003	2.000000000000000E+000	-8.0800542E-005	2.2568568E-006
2	0	0	1	1	2.917951926286332E+002	-5.6666976E-001	-5.6690985E-001	-4.056536644432594E-003	2.000000000000000E+000	-8.1071579E-005	2.2996905E-006
2	0	0	0	1	2.918617926269508E+002	-5.7000178E-001	-5.7025808E-001	-4.110749574354478E-003	2.000000000000000E+000	-8.1346152E-005	2.3441883E-006
2	0	0	0	1	2.919285926252633E+002	-5.7334059E-001	-5.7359296E-001	-4.164090325627506E-003	2.000000000000000E+000	-8.1625185E-005	2.3884929E-006
2	0	0	1	1	2.919951926235808E+002	-5.7667154E-001	-5.7692242E-001	-4.217067311471236E-003	2.000000000000000E+000	-8.1906903E-005	2.4329206E-006
2	0	0	0	1	2.920617926218983E+002	-5.8000129E-001	-5.8024508E-001	-4.274689943312419E-003	2.000000000000000E+000	-8.2192360E-005	2.4803678E-006
2	0	0	1	1	2.921283926202159E+002	-5.8333009E-001	-5.8356184E-001	-4.336553970959570E-003	2.000000000000000E+000	-8.2481791E-005	2.5306474E-006
2	0	0	1	1	2.921950926185309E+002	-5.8666652E-001	-5.8690917E-001	-4.396637668650560E-003	2.000000000000000E+000	-8.2775725E-005	2.5804270E-006
2	0	0	0	1	2.922617926168459E+002	-5.9000087E-001	-5.9024227E-001	-4.458076649839465E-003	2.000000000000000E+000	-8.3073719E-005	2.6313453E-006
2	0	0	1	1	2.923283926151635E+002	-5.9333074E-001	-5.9359044E-001	-4.523441387293325E-003	2.000000000000000E+000	-8.3375482E-005	2.6850716E-006
2	0	0	0	1	2.923949926134810E+002	-5.9666163E-001	-5.9689903E-001	-4.589813831635460E-003	2.000000000000000E+000	-8.3681618E-005	2.7396554E-006
2	0	0	1	1	2.924415926123038E+002	-5.9899062E-001	-5.9922296E-001	-4.637720639799538E-003	2.000000000000000E+000	-8.3898056E-005	2.7790286E-006
2	0	0	1	1	2.924583926118794E+002	-5.9982693E-001	-6.0004652E-001	-4.649854368633695E-003	2.000000000000000E+000	-8.3976694E-005	2.7901290E-006
2	0	0	0	1	2.924585926118743E+002	-6.0016018E-001	-6.0026777E-001	-4.734897054731846E-003	2.000000000000000E+000	-8.3977648E-005	2.8422062E-006