EC-Lab ASCII FILE
Nb header lines : 53                          

Cyclic Voltammetry

Run on channel : 1 (SN 0696)
User : 
Electrode connection : standard
Ewe ctrl range : min = -10.00 V, max = 10.00 V
Ewe,I filtering : 50 kHz
Channel : Grounded
Acquisition started on : 05/17/2017 12:39:23
Saved on :
	File : 100 uM MB 10mM PB  second ito_04_CV_C01.mpr
	Directory : \\userfs\st659\w2k\EC-Lab\Data\ITO Characterisation 17-5-17\
	Host : 144.32.136.43
Device : SP-300 (SN 0182)
Address : USB
EC-Lab for windows v10.44 (software)
Internet server v10.44 (firmware)
Command interpretor v10.44 (firmware)
Electrode material : 
Initial state : 
Electrolyte : 
Comments : 
Cable : standard
Electrode surface area : 0.001 cm²
Characteristic mass : 0.001 g
Equivalent Weight : 0.000 g/eq.
Density : 0.000 g/cm3
Ei (V)              0.000               
vs.                 Eoc                 
dE/dt               250.000             
dE/dt unit          mV/s                
E1 (V)              0.100               
vs.                 Ref                 
Step percent        50                  
N                   10                  
E range min (V)     -10.000             
E range max (V)     10.000              
I Range             Auto                
I Range min         Unset               
I Range max         Unset               
I Range init        Unset               
Bandwidth           8                   
E2 (V)              -0.600              
vs.                 Ref                 
nc cycles           2                   
Reverse Scan        1                   
Ef (V)              0.000               
vs.                 Eoc                 

mode	ox/red	error	control changes	counter inc.	time/s	control/V	Ewe/V	<I>/mA	cycle number	(Q-Qo)/C	P/W
2	1	0	0	1	3.942463900404982E+002	-6.0016018E-001	-6.0040516E-001	-7.007392589002848E-003	2.000000000000000E+000	-1.2845649E-005	4.2072747E-006
2	1	0	1	1	3.942537900403113E+002	-5.9831095E-001	-5.9854001E-001	-6.197552877226065E-003	2.000000000000000E+000	-1.2892010E-005	3.7094833E-006
2	1	0	1	1	3.942669900399778E+002	-5.9501225E-001	-5.9524095E-001	-5.713928765766874E-003	2.000000000000000E+000	-1.2969821E-005	3.4011643E-006
2	1	0	0	1	3.942803900396393E+002	-5.9166354E-001	-5.9188104E-001	-5.472222952064620E-003	2.000000000000000E+000	-1.3044153E-005	3.2389050E-006
2	1	0	1	1	3.942937900393008E+002	-5.8831483E-001	-5.8853942E-001	-5.288481086952526E-003	2.000000000000000E+000	-1.3115660E-005	3.1124796E-006
2	1	0	1	1	3.943069900389673E+002	-5.8501607E-001	-5.8524632E-001	-5.127632817635064E-003	2.000000000000000E+000	-1.3183813E-005	3.0009282E-006
2	1	0	0	1	3.943203900386288E+002	-5.8166730E-001	-5.8187598E-001	-4.989991286897227E-003	2.000000000000000E+000	-1.3251012E-005	2.9035562E-006
2	1	0	1	1	3.943337900382903E+002	-5.7831866E-001	-5.7854754E-001	-4.859614721115374E-003	2.000000000000000E+000	-1.3316444E-005	2.8115180E-006
2	1	0	1	1	3.943469900379569E+002	-5.7501990E-001	-5.7525593E-001	-4.741521483912131E-003	2.000000000000000E+000	-1.3379252E-005	2.7275883E-006
2	1	0	0	1	3.943603900376183E+002	-5.7167119E-001	-5.7190365E-001	-4.628867229803296E-003	2.000000000000000E+000	-1.3441461E-005	2.6472660E-006
2	1	0	1	1	3.943736900372824E+002	-5.6833911E-001	-5.6858075E-001	-4.524619172943473E-003	2.000000000000000E+000	-1.3501779E-005	2.5726113E-006
2	1	0	1	1	3.943869900369464E+002	-5.6500709E-001	-5.6526649E-001	-4.429504607125836E-003	2.000000000000000E+000	-1.3560766E-005	2.5038505E-006
2	1	0	0	1	3.944003900366079E+002	-5.6165832E-001	-5.6188995E-001	-4.333589841957697E-003	2.000000000000000E+000	-1.3618930E-005	2.4350006E-006
2	1	0	0	1	3.944135900362744E+002	-5.5835962E-001	-5.5858999E-001	-4.250780333010573E-003	2.000000000000000E+000	-1.3675036E-005	2.3744433E-006
2	1	0	1	1	3.944269900359359E+002	-5.5501086E-001	-5.5524415E-001	-4.163279306238922E-003	2.000000000000000E+000	-1.3730848E-005	2.3116365E-006
2	1	0	0	1	3.944403900355974E+002	-5.5166215E-001	-5.5187225E-001	-4.080387399295025E-003	2.000000000000000E+000	-1.3785532E-005	2.2518525E-006
2	1	0	0	1	3.944535900352639E+002	-5.4836339E-001	-5.4857892E-001	-4.007130067455164E-003	2.000000000000000E+000	-1.3838346E-005	2.1982271E-006
2	1	0	1	1	3.944669900349254E+002	-5.4501468E-001	-5.4522133E-001	-3.935667236671886E-003	2.000000000000000E+000	-1.3891005E-005	2.1458097E-006
2	1	0	0	1	3.944803900345869E+002	-5.4166597E-001	-5.4186898E-001	-3.862929585152910E-003	2.000000000000000E+000	-1.3942700E-005	2.0932018E-006
2	1	0	0	1	3.944935900342534E+002	-5.3836721E-001	-5.3857499E-001	-3.798306087386044E-003	2.000000000000000E+000	-1.3992722E-005	2.0456728E-006
2	1	0	1	1	3.945069900339149E+002	-5.3501850E-001	-5.3522444E-001	-3.731661103746661E-003	2.000000000000000E+000	-1.4042625E-005	1.9972763E-006
2	1	0	0	1	3.945203900335764E+002	-5.3166974E-001	-5.3188366E-001	-3.670605724962819E-003	2.000000000000000E+000	-1.4091675E-005	1.9523352E-006
2	1	0	0	1	3.945335900332429E+002	-5.2837104E-001	-5.2859288E-001	-3.608168950227586E-003	2.000000000000000E+000	-1.4139185E-005	1.9072525E-006
2	1	0	1	1	3.945469900329044E+002	-5.2501673E-001	-5.2523911E-001	-3.550524329188592E-003	2.000000000000000E+000	-1.4186600E-005	1.8648742E-006
2	1	0	1	1	3.945601900325710E+002	-5.2170694E-001	-5.2193505E-001	-3.493700638904942E-003	2.000000000000000E+000	-1.4232543E-005	1.8234848E-006
2	1	0	0	1	3.945735900322325E+002	-5.1835817E-001	-5.1855558E-001	-3.438158820770497E-003	2.000000000000000E+000	-1.4278427E-005	1.7828764E-006
2	1	0	1	1	3.945869900318939E+002	-5.1500946E-001	-5.1523298E-001	-3.389026082327783E-003	2.000000000000000E+000	-1.4323624E-005	1.7461380E-006
2	1	0	1	1	3.946001900315605E+002	-5.1171070E-001	-5.1193559E-001	-3.336116254144549E-003	2.000000000000000E+000	-1.4367461E-005	1.7078767E-006
2	1	0	0	1	3.946135900312220E+002	-5.0836200E-001	-5.0858241E-001	-3.285128025507025E-003	2.000000000000000E+000	-1.4411259E-005	1.6707584E-006
2	1	0	1	1	3.946269900308835E+002	-5.0501329E-001	-5.0524479E-001	-3.237069193912444E-003	2.000000000000000E+000	-1.4454427E-005	1.6355124E-006
2	1	0	1	1	3.946401900305500E+002	-5.0171453E-001	-5.0193751E-001	-3.187256075499245E-003	2.000000000000000E+000	-1.4496294E-005	1.5998033E-006
2	1	0	0	1	3.946535900302115E+002	-4.9836579E-001	-4.9857849E-001	-3.141072719255247E-003	2.000000000000000E+000	-1.4538147E-005	1.5660713E-006
2	1	0	1	1	3.946669900298730E+002	-4.9501708E-001	-4.9522576E-001	-3.096857623242810E-003	2.000000000000000E+000	-1.4579387E-005	1.5336436E-006
2	1	0	1	1	3.946801900295395E+002	-4.9171832E-001	-4.9192491E-001	-3.052573481879033E-003	2.000000000000000E+000	-1.4619436E-005	1.5016369E-006
2	1	0	0	1	3.946935900292010E+002	-4.8836961E-001	-4.8860860E-001	-3.011384097428359E-003	2.000000000000000E+000	-1.4659513E-005	1.4713881E-006
2	1	0	1	1	3.947069900288625E+002	-4.8502088E-001	-4.8524225E-001	-2.967574289666826E-003	2.000000000000000E+000	-1.4699032E-005	1.4399924E-006
2	1	0	1	1	3.947201900285290E+002	-4.8171663E-001	-4.8194265E-001	-2.925432339472737E-003	2.000000000000000E+000	-1.4737387E-005	1.4098906E-006
2	1	0	0	1	3.947335900281905E+002	-4.7835681E-001	-4.7857609E-001	-2.882911168267631E-003	2.000000000000000E+000	-1.4775756E-005	1.3796923E-006
2	1	0	0	1	3.947467900278571E+002	-4.7505805E-001	-4.7527513E-001	-2.842469246237059E-003	2.000000000000000E+000	-1.4813007E-005	1.3509549E-006
2	1	0	1	1	3.947601900275185E+002	-4.7170928E-001	-4.7192743E-001	-2.806654304852906E-003	2.000000000000000E+000	-1.4850313E-005	1.3245372E-006
2	1	0	0	1	3.947735900271800E+002	-4.6836057E-001	-4.6858603E-001	-2.767384406100359E-003	2.000000000000000E+000	-1.4887116E-005	1.2967577E-006
2	1	0	0	1	3.947867900268466E+002	-4.6506181E-001	-4.6527019E-001	-2.727163386892530E-003	2.000000000000000E+000	-1.4922824E-005	1.2688678E-006
2	1	0	1	1	3.948001900265081E+002	-4.6171314E-001	-4.6191126E-001	-2.692182667103929E-003	2.000000000000000E+000	-1.4958574E-005	1.2435495E-006
2	1	0	0	1	3.948135900261696E+002	-4.5836437E-001	-4.5857379E-001	-2.654069409012069E-003	2.000000000000000E+000	-1.4993858E-005	1.2170867E-006
2	1	0	0	1	3.948267900258361E+002	-4.5506561E-001	-4.5525226E-001	-2.616721083035775E-003	2.000000000000000E+000	-1.5028104E-005	1.1912682E-006
2	1	0	1	1	3.948401900254976E+002	-4.5171693E-001	-4.5190379E-001	-2.584117577205489E-003	2.000000000000000E+000	-1.5062394E-005	1.1677726E-006
2	1	0	0	1	3.948535900251591E+002	-4.4836822E-001	-4.4856969E-001	-2.548032296423725E-003	2.000000000000000E+000	-1.5096231E-005	1.1429701E-006
2	1	0	0	1	3.948667900248256E+002	-4.4506946E-001	-4.4526431E-001	-2.515486472788729E-003	2.000000000000000E+000	-1.5129105E-005	1.1200564E-006
2	1	0	1	1	3.948801900244871E+002	-4.4172072E-001	-4.4193354E-001	-2.480495979155721E-003	2.000000000000000E+000	-1.5162030E-005	1.0962144E-006
2	1	0	0	1	3.948934900241511E+002	-4.3839434E-001	-4.3861556E-001	-2.445081267819530E-003	2.000000000000000E+000	-1.5194252E-005	1.0724507E-006
2	1	0	0	1	3.949067900238151E+002	-4.3505663E-001	-4.3526113E-001	-2.408252392443605E-003	2.000000000000000E+000	-1.5225964E-005	1.0482187E-006
2	1	0	1	1	3.949201900234766E+002	-4.3170789E-001	-4.3190840E-001	-2.376203009043815E-003	2.000000000000000E+000	-1.5257488E-005	1.0263020E-006
2	1	0	1	1	3.949333900231431E+002	-4.2840916E-001	-4.2860830E-001	-2.344537102221180E-003	2.000000000000000E+000	-1.5288113E-005	1.0048881E-006
2	1	0	0	1	3.949467900228046E+002	-4.2506039E-001	-4.2527130E-001	-2.313923330701881E-003	2.000000000000000E+000	-1.5318778E-005	9.8404519E-007
2	1	0	1	1	3.949601900224661E+002	-4.2171171E-001	-4.2192563E-001	-2.280564706375617E-003	2.000000000000000E+000	-1.5349020E-005	9.6222868E-007
2	1	0	1	1	3.949733900221327E+002	-4.1841298E-001	-4.1863593E-001	-2.247455751775196E-003	2.000000000000000E+000	-1.5378371E-005	9.4086573E-007
2	1	0	0	1	3.949867900217942E+002	-4.1506422E-001	-4.1527352E-001	-2.215409138009113E-003	2.000000000000000E+000	-1.5407721E-005	9.2000073E-007
2	1	0	1	1	3.950001900214556E+002	-4.1171551E-001	-4.1192803E-001	-2.183407343555804E-003	2.000000000000000E+000	-1.5436646E-005	8.9940670E-007
2	1	0	1	1	3.950133900211222E+002	-4.0841681E-001	-4.0863097E-001	-2.154526341665689E-003	2.000000000000000E+000	-1.5464731E-005	8.8040616E-007
2	1	0	0	1	3.950267900207837E+002	-4.0506804E-001	-4.0527827E-001	-2.120237326148024E-003	2.000000000000000E+000	-1.5492835E-005	8.5928610E-007
2	1	0	1	1	3.950401900204452E+002	-4.0171930E-001	-4.0192536E-001	-2.091598914901422E-003	2.000000000000000E+000	-1.5520534E-005	8.4066664E-007
2	1	0	1	1	3.950533900201117E+002	-3.9842060E-001	-3.9864925E-001	-2.060645787858244E-003	2.000000000000000E+000	-1.5547399E-005	8.2147488E-007
2	1	0	0	1	3.950667900197732E+002	-3.9507186E-001	-3.9528993E-001	-2.029642049840023E-003	2.000000000000000E+000	-1.5574255E-005	8.0229705E-007
2	1	0	0	1	3.950799900194397E+002	-3.9175645E-001	-3.9200038E-001	-1.995660061311348E-003	2.000000000000000E+000	-1.5600279E-005	7.8229948E-007
2	1	0	1	1	3.950933900191012E+002	-3.8840771E-001	-3.8862133E-001	-1.969409607995156E-003	2.000000000000000E+000	-1.5626289E-005	7.6535457E-007
2	1	0	0	1	3.951067900187627E+002	-3.8505900E-001	-3.8528848E-001	-1.939628846563813E-003	2.000000000000000E+000	-1.5651940E-005	7.4731662E-007
2	1	0	0	1	3.951199900184292E+002	-3.8176024E-001	-3.8198000E-001	-1.905079484115245E-003	2.000000000000000E+000	-1.5676771E-005	7.2770229E-007
2	1	0	1	1	3.951333900180907E+002	-3.7841156E-001	-3.7859720E-001	-1.876140437565899E-003	2.000000000000000E+000	-1.5701558E-005	7.1030149E-007
2	1	0	0	1	3.951467900177522E+002	-3.7506279E-001	-3.7527075E-001	-1.848077358449194E-003	2.000000000000000E+000	-1.5725980E-005	6.9352939E-007
2	1	0	0	1	3.951599900174188E+002	-3.7176406E-001	-3.7196574E-001	-1.817190246846519E-003	2.000000000000000E+000	-1.5749636E-005	6.7593248E-007
2	1	0	1	1	3.951733900170802E+002	-3.6841533E-001	-3.6860061E-001	-1.788518397400664E-003	2.000000000000000E+000	-1.5773237E-005	6.5924894E-007
2	1	0	0	1	3.951867900167417E+002	-3.6506659E-001	-3.6526555E-001	-1.760312526706297E-003	2.000000000000000E+000	-1.5796468E-005	6.4298155E-007
2	1	0	0	1	3.951999900164083E+002	-3.6176786E-001	-3.6197528E-001	-1.730352173550879E-003	2.000000000000000E+000	-1.5818970E-005	6.2634473E-007
2	1	0	1	1	3.952133900160698E+002	-3.5841912E-001	-3.5864457E-001	-1.698611674975025E-003	2.000000000000000E+000	-1.5841400E-005	6.0919785E-007
2	1	0	0	1	3.952267900157312E+002	-3.5507044E-001	-3.5528597E-001	-1.671236492044653E-003	2.000000000000000E+000	-1.5863438E-005	5.9376686E-007
2	1	0	0	1	3.952399900153978E+002	-3.5177165E-001	-3.5199004E-001	-1.639067504280920E-003	2.000000000000000E+000	-1.5884742E-005	5.7693546E-007
2	1	0	1	1	3.952533900150593E+002	-3.4840629E-001	-3.4862494E-001	-1.604962340894009E-003	2.000000000000000E+000	-1.5905927E-005	5.5952989E-007
2	1	0	1	1	3.952665900147258E+002	-3.4510759E-001	-3.4532773E-001	-1.580149808053953E-003	2.000000000000000E+000	-1.5926405E-005	5.4566954E-007
2	1	0	0	1	3.952799900143873E+002	-3.4175885E-001	-3.4197912E-001	-1.547562148279114E-003	2.000000000000000E+000	-1.5946807E-005	5.2923394E-007
2	1	0	1	1	3.952933900140488E+002	-3.3841014E-001	-3.3859369E-001	-1.512287211466580E-003	2.000000000000000E+000	-1.5966774E-005	5.1205092E-007
2	1	0	1	1	3.953065900137153E+002	-3.3511138E-001	-3.3530653E-001	-1.486063819159728E-003	2.000000000000000E+000	-1.5986019E-005	4.9828691E-007
2	1	0	0	1	3.953199900133768E+002	-3.3176267E-001	-3.3194435E-001	-1.451739436631922E-003	2.000000000000000E+000	-1.6005155E-005	4.8189668E-007
2	1	0	1	1	3.953333900130383E+002	-3.2841393E-001	-3.2859138E-001	-1.420092359664223E-003	2.000000000000000E+000	-1.6023865E-005	4.6663010E-007
2	1	0	1	1	3.953465900127048E+002	-3.2511517E-001	-3.2527477E-001	-1.388557872299620E-003	2.000000000000000E+000	-1.6041869E-005	4.5166283E-007
2	1	0	0	1	3.953599900123663E+002	-3.2176644E-001	-3.2194284E-001	-1.357896073255281E-003	2.000000000000000E+000	-1.6059717E-005	4.3716491E-007
2	1	0	1	1	3.953733900120278E+002	-3.1841773E-001	-3.1862628E-001	-1.325233684979641E-003	2.000000000000000E+000	-1.6077152E-005	4.2225429E-007
2	1	0	1	1	3.953865900116944E+002	-3.1511900E-001	-3.1531668E-001	-1.288779953928398E-003	2.000000000000000E+000	-1.6093869E-005	4.0637380E-007
2	1	0	0	1	3.953999900113558E+002	-3.1177026E-001	-3.1195188E-001	-1.256488018038403E-003	2.000000000000000E+000	-1.6110374E-005	3.9196379E-007
2	1	0	1	1	3.954133900110173E+002	-3.0842155E-001	-3.0861342E-001	-1.220697923463378E-003	2.000000000000000E+000	-1.6126420E-005	3.7672376E-007
2	1	0	1	1	3.954265900106839E+002	-3.0511171E-001	-3.0529970E-001	-1.178816290439498E-003	2.000000000000000E+000	-1.6141708E-005	3.5989225E-007
2	1	0	0	1	3.954399900103454E+002	-3.0175740E-001	-3.0193731E-001	-1.146814675818558E-003	2.000000000000000E+000	-1.6156744E-005	3.4626615E-007
2	1	0	0	1	3.954531900100119E+002	-2.9845867E-001	-2.9862630E-001	-1.107003542387650E-003	2.000000000000000E+000	-1.6171080E-005	3.3058038E-007
2	1	0	1	1	3.954665900096734E+002	-2.9510993E-001	-2.9528347E-001	-1.063465577549825E-003	2.000000000000000E+000	-1.6185060E-005	3.1402379E-007
2	1	0	0	1	3.954799900093349E+002	-2.9176122E-001	-2.9191670E-001	-1.027835153253259E-003	2.000000000000000E+000	-1.6198514E-005	3.0004225E-007
2	1	0	0	1	3.954931900090014E+002	-2.8846246E-001	-2.8860813E-001	-9.830669560111950E-004	2.000000000000000E+000	-1.6211245E-005	2.8372111E-007
2	1	0	1	1	3.955065900086629E+002	-2.8511375E-001	-2.8526926E-001	-9.394547390760045E-004	2.000000000000000E+000	-1.6223577E-005	2.6799756E-007
2	1	0	0	1	3.955199900083244E+002	-2.8176501E-001	-2.8192428E-001	-8.963677481966022E-004	2.000000000000000E+000	-1.6235330E-005	2.5270782E-007
2	1	0	0	1	3.955331900079909E+002	-2.7846628E-001	-2.7862006E-001	-8.501064466751515E-004	2.000000000000000E+000	-1.6246320E-005	2.3685671E-007
2	1	0	1	1	3.955465900076524E+002	-2.7511758E-001	-2.7529731E-001	-8.039908508812380E-004	2.000000000000000E+000	-1.6256849E-005	2.2133652E-007
2	1	0	0	1	3.955599900073139E+002	-2.7176884E-001	-2.7194494E-001	-7.514821509377926E-004	2.000000000000000E+000	-1.6266727E-005	2.0436177E-007
2	1	0	0	1	3.955731900069804E+002	-2.6847011E-001	-2.6863605E-001	-6.987469017505805E-004	2.000000000000000E+000	-1.6275748E-005	1.8770861E-007
2	1	0	1	1	3.955865900066419E+002	-2.6512140E-001	-2.6528400E-001	-6.437750311559078E-004	2.000000000000000E+000	-1.6284182E-005	1.7078321E-007
2	1	0	0	1	3.955998900063059E+002	-2.6178932E-001	-2.6194623E-001	-5.824232373020662E-004	2.000000000000000E+000	-1.6291797E-005	1.5256357E-007
2	1	0	0	1	3.956131900059700E+002	-2.5845727E-001	-2.5862557E-001	-5.271897580592455E-004	2.000000000000000E+000	-1.6298622E-005	1.3634475E-007
2	1	0	1	1	3.956265900056314E+002	-2.5510854E-001	-2.5528780E-001	-4.670248778236548E-004	2.000000000000000E+000	-1.6304744E-005	1.1922575E-007
2	1	0	1	1	3.956397900052980E+002	-2.5180981E-001	-2.5198713E-001	-4.004187822778879E-004	2.000000000000000E+000	-1.6309930E-005	1.0090038E-007
2	1	0	0	1	3.956531900049595E+002	-2.4846108E-001	-2.4862888E-001	-3.322329199565701E-004	2.000000000000000E+000	-1.6314276E-005	8.2602703E-008
2	1	0	1	1	3.956665900046210E+002	-2.4511236E-001	-2.4530256E-001	-2.584479787805722E-004	2.000000000000000E+000	-1.6317686E-005	6.3397948E-008
2	1	0	1	1	3.956797900042875E+002	-2.4181360E-001	-2.4198300E-001	-1.846471427983131E-004	2.000000000000000E+000	-1.6320053E-005	4.4681467E-008
2	1	0	0	1	3.956931900039490E+002	-2.3846486E-001	-2.3864359E-001	-1.083286658109094E-004	2.000000000000000E+000	-1.6321448E-005	2.5851941E-008
2	1	0	1	1	3.957065900036105E+002	-2.3511614E-001	-2.3529807E-001	-2.993990103360291E-005	2.000000000000000E+000	-1.6321817E-005	7.0448007E-009
2	1	0	1	1	3.957197900032770E+002	-2.3181742E-001	-2.3201567E-001	4.738372311992290E-005	2.000000000000000E+000	-1.6321150E-005	1.0993766E-008
2	1	0	0	1	3.957331900029385E+002	-2.2846869E-001	-2.2865878E-001	1.388465997037101E-004	2.000000000000000E+000	-1.6319333E-005	3.1748495E-008
2	1	0	1	1	3.957465900026000E+002	-2.2511996E-001	-2.2531746E-001	2.281118434186487E-004	2.000000000000000E+000	-1.6316324E-005	5.1397581E-008
2	1	0	1	1	3.957597900022665E+002	-2.2182122E-001	-2.2201152E-001	3.195977039265720E-004	2.000000000000000E+000	-1.6312160E-005	7.0954371E-008
2	1	0	0	1	3.957731900019280E+002	-2.1846695E-001	-2.1864982E-001	4.172029031034689E-004	2.000000000000000E+000	-1.6306663E-005	9.1221338E-008
2	1	0	0	1	3.957863900015946E+002	-2.1515711E-001	-2.1534882E-001	5.125064140631564E-004	2.000000000000000E+000	-1.6299975E-005	1.1036765E-007
2	1	0	1	1	3.957997900012560E+002	-2.1180838E-001	-2.1198760E-001	6.127695137618325E-004	2.000000000000000E+000	-1.6291875E-005	1.2989953E-007
2	1	0	0	1	3.958131900009175E+002	-2.0845966E-001	-2.0861359E-001	7.168600264549265E-004	2.000000000000000E+000	-1.6282405E-005	1.4954675E-007
2	1	0	0	1	3.958263900005841E+002	-2.0516092E-001	-2.0532911E-001	8.142446897939706E-004	2.000000000000000E+000	-1.6271750E-005	1.6718813E-007
2	1	0	1	1	3.958397900002456E+002	-2.0181218E-001	-2.0198345E-001	9.178990139389516E-004	2.000000000000000E+000	-1.6259575E-005	1.8540041E-007
2	1	0	0	1	3.958531899999070E+002	-1.9846345E-001	-1.9860929E-001	1.023501183595324E-003	2.000000000000000E+000	-1.6246013E-005	2.0327684E-007
2	1	0	0	1	3.958663899995736E+002	-1.9516471E-001	-1.9533139E-001	1.122173705309454E-003	2.000000000000000E+000	-1.6231294E-005	2.1919575E-007
2	1	0	1	1	3.958797899992351E+002	-1.9181599E-001	-1.9198614E-001	1.225026325199805E-003	2.000000000000000E+000	-1.6214995E-005	2.3518808E-007
2	1	0	0	1	3.958931899988966E+002	-1.8846726E-001	-1.8863599E-001	1.337220838442791E-003	2.000000000000000E+000	-1.6197266E-005	2.5224799E-007
2	1	0	0	1	3.959063899985631E+002	-1.8516852E-001	-1.8535653E-001	1.436201224219578E-003	2.000000000000000E+000	-1.6178399E-005	2.6620927E-007
2	1	0	1	1	3.959197899982246E+002	-1.8181980E-001	-1.8200363E-001	1.535297775530534E-003	2.000000000000000E+000	-1.6157914E-005	2.7942977E-007
2	1	0	0	1	3.959331899978861E+002	-1.7847109E-001	-1.7864414E-001	1.628227595544249E-003	2.000000000000000E+000	-1.6136159E-005	2.9087332E-007
2	1	0	0	1	3.959463899975526E+002	-1.7516679E-001	-1.7535733E-001	1.714991349116551E-003	2.000000000000000E+000	-1.6113538E-005	3.0073630E-007
2	1	0	1	1	3.959597899972141E+002	-1.7180695E-001	-1.7199244E-001	1.801905979169134E-003	2.000000000000000E+000	-1.6089398E-005	3.0991418E-007
2	1	0	1	1	3.959729899968806E+002	-1.6850822E-001	-1.6870148E-001	1.886484299646128E-003	2.000000000000000E+000	-1.6064490E-005	3.1825269E-007
2	1	0	0	1	3.959863899965421E+002	-1.6515949E-001	-1.6532832E-001	1.963361000353984E-003	2.000000000000000E+000	-1.6038137E-005	3.2459917E-007
2	1	0	1	1	3.959997899962036E+002	-1.6181076E-001	-1.6197844E-001	2.031681897854784E-003	2.000000000000000E+000	-1.6010819E-005	3.2908866E-007
2	1	0	1	1	3.960129899958702E+002	-1.5851201E-001	-1.5868534E-001	2.088955841413234E-003	2.000000000000000E+000	-1.5983063E-005	3.3148666E-007
2	1	0	0	1	3.960263899955316E+002	-1.5516329E-001	-1.5532196E-001	2.149608417140472E-003	2.000000000000000E+000	-1.5954081E-005	3.3388139E-007
2	1	0	1	1	3.960397899951931E+002	-1.5181457E-001	-1.5197542E-001	2.187036660810313E-003	2.000000000000000E+000	-1.5924463E-005	3.3237583E-007
2	1	0	1	1	3.960529899948597E+002	-1.4851582E-001	-1.4867783E-001	2.228036709715924E-003	2.000000000000000E+000	-1.5894775E-005	3.3125966E-007
2	1	0	0	1	3.960663899945212E+002	-1.4516710E-001	-1.4534481E-001	2.262716829944916E-003	2.000000000000000E+000	-1.5864121E-005	3.2887414E-007
2	1	0	1	1	3.960797899941826E+002	-1.4181839E-001	-1.4198108E-001	2.284442015944584E-003	2.000000000000000E+000	-1.5833102E-005	3.2434755E-007
2	1	0	1	1	3.960929899938492E+002	-1.3851964E-001	-1.3869473E-001	2.300839239281538E-003	2.000000000000000E+000	-1.5802301E-005	3.1911429E-007
2	1	0	0	1	3.961063899935107E+002	-1.3517092E-001	-1.3531943E-001	2.311835512712910E-003	2.000000000000000E+000	-1.5770849E-005	3.1283625E-007
2	1	0	1	1	3.961196899931747E+002	-1.3184451E-001	-1.3199940E-001	2.308487724361957E-003	2.000000000000000E+000	-1.5739613E-005	3.0471901E-007
2	1	0	1	1	3.961329899928387E+002	-1.2850679E-001	-1.2868072E-001	2.309042011751852E-003	2.000000000000000E+000	-1.5708358E-005	2.9712919E-007
2	1	0	0	1	3.961463899925002E+002	-1.2515807E-001	-1.2529790E-001	2.303389851517247E-003	2.000000000000000E+000	-1.5676924E-005	2.8860993E-007
2	1	0	0	1	3.961595899921667E+002	-1.2185933E-001	-1.2200195E-001	2.289648442587763E-003	2.000000000000000E+000	-1.5646077E-005	2.7934158E-007
2	1	0	1	1	3.961729899918282E+002	-1.1851060E-001	-1.1866101E-001	2.273429147064434E-003	2.000000000000000E+000	-1.5614978E-005	2.6976738E-007
2	1	0	0	1	3.961863899914897E+002	-1.1516187E-001	-1.1529171E-001	2.250046180951263E-003	2.000000000000000E+000	-1.5584161E-005	2.5941168E-007
2	1	0	0	1	3.961995899911562E+002	-1.1186313E-001	-1.1198688E-001	2.227478896060755E-003	2.000000000000000E+000	-1.5554102E-005	2.4944842E-007
2	1	0	1	1	3.962129899908177E+002	-1.0851441E-001	-1.0864807E-001	2.196854432824897E-003	2.000000000000000E+000	-1.5523920E-005	2.3868398E-007
2	1	0	0	1	3.962263899904792E+002	-1.0516569E-001	-1.0529858E-001	2.166415986529401E-003	2.000000000000000E+000	-1.5494168E-005	2.2812053E-007
2	1	0	0	1	3.962395899901458E+002	-1.0186695E-001	-1.0201030E-001	2.136986480905359E-003	2.000000000000000E+000	-1.5465241E-005	2.1799464E-007
2	1	0	1	1	3.962529899898072E+002	-9.8518230E-002	-9.8677531E-002	2.106456719795660E-003	2.000000000000000E+000	-1.5436277E-005	2.0785996E-007
2	1	0	0	1	3.962663899894687E+002	-9.5169500E-002	-9.5312819E-002	2.074642118138097E-003	2.000000000000000E+000	-1.5407759E-005	1.9773999E-007
2	1	0	0	1	3.962795899891353E+002	-9.1870748E-002	-9.2009470E-002	2.047107508345407E-003	2.000000000000000E+000	-1.5380027E-005	1.8835328E-007
2	1	0	1	1	3.962929899887968E+002	-8.8522032E-002	-8.8660292E-002	2.014740840655172E-003	2.000000000000000E+000	-1.5352260E-005	1.7862752E-007
2	1	0	1	1	3.963061899884633E+002	-8.5206628E-002	-8.5360952E-002	1.989210509923903E-003	2.000000000000000E+000	-1.5325289E-005	1.6980090E-007
2	1	0	0	1	3.963195899881248E+002	-8.1857905E-002	-8.2019918E-002	1.961723487632603E-003	2.000000000000000E+000	-1.5298290E-005	1.6090040E-007
2	1	0	1	1	3.963329899877863E+002	-7.8509182E-002	-7.8669377E-002	1.931248377847314E-003	2.000000000000000E+000	-1.5271688E-005	1.5193011E-007
2	1	0	1	1	3.963461899874528E+002	-7.5210445E-002	-7.5360306E-002	1.902516583828001E-003	2.000000000000000E+000	-1.5245877E-005	1.4337424E-007
2	1	0	0	1	3.963595899871143E+002	-7.1861722E-002	-7.2031260E-002	1.879366334146149E-003	2.000000000000000E+000	-1.5220011E-005	1.3537313E-007
2	1	0	1	1	3.963729899867758E+002	-6.8512999E-002	-6.8678409E-002	1.850504610956712E-003	2.000000000000000E+000	-1.5194494E-005	1.2708971E-007
2	1	0	1	1	3.963861899864423E+002	-6.5214254E-002	-6.5386109E-002	1.830407708015035E-003	2.000000000000000E+000	-1.5169661E-005	1.1968324E-007
2	1	0	0	1	3.963995899861038E+002	-6.1865531E-002	-6.2039204E-002	1.811324506383652E-003	2.000000000000000E+000	-1.5144726E-005	1.1237313E-007
2	1	0	1	1	3.964129899857653E+002	-5.8516812E-002	-5.8698080E-002	1.792758926037804E-003	2.000000000000000E+000	-1.5120063E-005	1.0523151E-007
2	1	0	1	1	3.964261899854318E+002	-5.5218067E-002	-5.5398315E-002	1.772353542037313E-003	2.000000000000000E+000	-1.5096017E-005	9.8185403E-008
2	1	0	0	1	3.964395899850933E+002	-5.1869340E-002	-5.2047208E-002	1.753083846486127E-003	2.000000000000000E+000	-1.5071868E-005	9.1243116E-008
2	1	0	1	1	3.964529899847548E+002	-4.8520621E-002	-4.8681822E-002	1.736261622186758E-003	2.000000000000000E+000	-1.5047966E-005	8.4524380E-008
2	1	0	1	1	3.964661899844214E+002	-4.5221880E-002	-4.5397930E-002	1.721624552505508E-003	2.000000000000000E+000	-1.5024627E-005	7.8158187E-008
2	1	0	0	1	3.964795899840829E+002	-4.1856486E-002	-4.2010568E-002	1.712341587891504E-003	2.000000000000000E+000	-1.5001086E-005	7.1936441E-008
2	1	0	0	1	3.964927899837494E+002	-3.8557746E-002	-3.8715862E-002	1.693704469804901E-003	2.000000000000000E+000	-1.4978074E-005	6.5573225E-008
2	1	0	1	1	3.965061899834109E+002	-3.5209026E-002	-3.5370510E-002	1.678968516029673E-003	2.000000000000000E+000	-1.4954933E-005	5.9385972E-008
2	1	0	0	1	3.965195899830724E+002	-3.1860303E-002	-3.2020867E-002	1.664800974190764E-003	2.000000000000000E+000	-1.4931998E-005	5.3308369E-008
2	1	0	0	1	3.965327899827389E+002	-2.8561560E-002	-2.8715381E-002	1.660317356557542E-003	2.000000000000000E+000	-1.4909527E-005	4.7676647E-008
2	1	0	1	1	3.965461899824004E+002	-2.5212837E-002	-2.5364337E-002	1.646174506842932E-003	2.000000000000000E+000	-1.4886836E-005	4.1754127E-008
2	1	0	0	1	3.965595899820619E+002	-2.1864114E-002	-2.2010460E-002	1.637098657920437E-003	2.000000000000000E+000	-1.4864298E-005	3.6033295E-008
2	1	0	0	1	3.965727899817284E+002	-1.8565372E-002	-1.8712861E-002	1.623689246682457E-003	2.000000000000000E+000	-1.4842243E-005	3.0383873E-008
2	1	0	1	1	3.965861899813899E+002	-1.5216647E-002	-1.5379464E-002	1.617867015657895E-003	2.000000000000000E+000	-1.4819990E-005	2.4881928E-008
2	1	0	0	1	3.965995899810514E+002	-1.1867925E-002	-1.2039038E-002	1.607716555978792E-003	2.000000000000000E+000	-1.4797844E-005	1.9355362E-008
2	1	0	0	1	3.966127899807179E+002	-8.5691819E-003	-8.7267170E-003	1.603025484039087E-003	2.000000000000000E+000	-1.4776114E-005	1.3989149E-008
2	1	0	1	1	3.966261899803794E+002	-5.2204579E-003	-5.3689312E-003	1.593492511791635E-003	2.000000000000000E+000	-1.4754141E-005	8.5553520E-009
2	1	0	0	1	3.966395899800409E+002	-1.8717349E-003	-2.0329563E-003	1.591612761088379E-003	2.000000000000000E+000	-1.4732291E-005	3.2356793E-009
2	1	0	0	1	3.966527899797075E+002	1.4501727E-003	1.2704278E-003	1.589156820874562E-003	2.000000000000000E+000	-1.4710787E-005	2.0189090E-009
2	1	0	1	1	3.966661899793689E+002	4.7923895E-003	4.6778126E-003	1.581592078688736E-003	2.000000000000000E+000	-1.4689000E-005	7.3983912E-009
2	1	0	1	1	3.966793899790355E+002	8.0911303E-003	7.9557924E-003	1.575021053076853E-003	2.000000000000000E+000	-1.4667633E-005	1.2530540E-008
2	1	0	0	1	3.966927899786970E+002	1.1439852E-002	1.1309825E-002	1.572370103122014E-003	2.000000000000000E+000	-1.4645990E-005	1.7783231E-008
2	1	0	1	1	3.967061899783585E+002	1.4788575E-002	1.4678833E-002	1.566110473418633E-003	2.000000000000000E+000	-1.4624416E-005	2.2988674E-008
2	1	0	1	1	3.967193899780250E+002	1.8087313E-002	1.7982313E-002	1.563762326451172E-003	2.000000000000000E+000	-1.4603222E-005	2.8120064E-008
2	1	0	0	1	3.967327899776865E+002	2.1436036E-002	2.1329351E-002	1.561211007447130E-003	2.000000000000000E+000	-1.4581748E-005	3.3299617E-008
2	1	0	1	1	3.967461899773480E+002	2.4784757E-002	2.4658646E-002	1.556485421315304E-003	2.000000000000000E+000	-1.4560330E-005	3.8380822E-008
2	1	0	1	1	3.967593899770145E+002	2.8083500E-002	2.7962793E-002	1.557705757154006E-003	2.000000000000000E+000	-1.4539259E-005	4.3557804E-008
2	1	0	0	1	3.967727899766760E+002	3.1432223E-002	3.1303599E-002	1.554915390791702E-003	2.000000000000000E+000	-1.4517872E-005	4.8674448E-008
2	1	0	1	1	3.967861899763375E+002	3.4780946E-002	3.4666028E-002	1.555922736916831E-003	2.000000000000000E+000	-1.4496496E-005	5.3937661E-008
2	1	0	1	1	3.967993899760040E+002	3.8079683E-002	3.7951443E-002	1.551299619566435E-003	2.000000000000000E+000	-1.4475450E-005	5.8874061E-008
2	1	0	0	1	3.968127899756655E+002	4.1428406E-002	4.1322302E-002	1.553522882426884E-003	2.000000000000000E+000	-1.4454096E-005	6.4195142E-008
2	1	0	1	1	3.968260899753295E+002	4.4766117E-002	4.4654608E-002	1.555768563703996E-003	2.000000000000000E+000	-1.4432887E-005	6.9472236E-008
2	1	0	1	1	3.968393899749935E+002	4.8092525E-002	4.8002385E-002	1.551992812023350E-003	2.000000000000000E+000	-1.4411675E-005	7.4499354E-008
2	1	0	0	1	3.968527899746550E+002	5.1441249E-002	5.1335845E-002	1.552934265186602E-003	2.000000000000000E+000	-1.4390333E-005	7.9721190E-008
2	1	0	0	1	3.968659899743216E+002	5.4739993E-002	5.4639447E-002	1.554137579675319E-003	2.000000000000000E+000	-1.4369291E-005	8.4917218E-008
2	1	0	1	1	3.968793899739831E+002	5.8088712E-002	5.8009546E-002	1.553808829142632E-003	2.000000000000000E+000	-1.4347923E-005	9.0135742E-008
2	1	0	0	1	3.968927899736445E+002	6.1437439E-002	6.1354443E-002	1.551290914641068E-003	2.000000000000000E+000	-1.4326580E-005	9.5178592E-008
2	1	0	0	1	3.969059899733111E+002	6.4736180E-002	6.4652398E-002	1.551464896798891E-003	2.000000000000000E+000	-1.4305556E-005	1.0030593E-007
2	1	0	1	1	3.969193899729726E+002	6.8084896E-002	6.7982867E-002	1.556009731494773E-003	2.000000000000000E+000	-1.4284194E-005	1.0578200E-007
2	1	0	0	1	3.969327899726341E+002	7.1433619E-002	7.1332358E-002	1.557773029773880E-003	2.000000000000000E+000	-1.4262798E-005	1.1111963E-007
2	1	0	0	1	3.969459899723006E+002	7.4732356E-002	7.4642733E-002	1.557358121181102E-003	2.000000000000000E+000	-1.4241702E-005	1.1624547E-007
2	1	0	1	1	3.969593899719621E+002	7.8081086E-002	7.7999569E-002	1.563482417552425E-003	2.000000000000000E+000	-1.4220237E-005	1.2195096E-007
2	1	0	0	1	3.969727899716236E+002	8.1429809E-002	8.1336021E-002	1.562699463521415E-003	2.000000000000000E+000	-1.4198751E-005	1.2710376E-007
2	1	0	0	1	3.969859899712901E+002	8.4728546E-002	8.4621310E-002	1.563669375774322E-003	2.000000000000000E+000	-1.4177572E-005	1.3231976E-007
2	1	0	1	1	3.969993899709516E+002	8.8088378E-002	8.7983504E-002	1.566814068170670E-003	2.000000000000000E+000	-1.4156054E-005	1.3785379E-007
2	1	0	1	1	3.970125899706181E+002	9.1392674E-002	9.1278248E-002	1.567626788265546E-003	2.000000000000000E+000	-1.4134824E-005	1.4309023E-007
2	1	0	0	1	3.970259899702796E+002	9.4741389E-002	9.4636470E-002	1.575687787878147E-003	2.000000000000000E+000	-1.4113219E-005	1.4911753E-007
2	1	0	1	1	3.970393899699411E+002	9.8090112E-002	9.7985581E-002	1.576961910925299E-003	2.000000000000000E+000	-1.4091571E-005	1.5451953E-007
2	0	0	0	1	3.970471899697441E+002	9.9906117E-002	9.9780262E-002	1.554082357324659E-003	2.000000000000000E+000	-1.4079002E-005	1.5506674E-007
2	0	0	1	1	3.970545899695571E+002	9.8073460E-002	9.7943291E-002	1.009013845082842E-003	2.000000000000000E+000	-1.4071394E-005	9.8826135E-008
2	0	0	0	1	3.970679899692186E+002	9.4724730E-002	9.4598070E-002	7.942015983897210E-004	2.000000000000000E+000	-1.4060002E-005	7.5129940E-008
2	0	0	0	1	3.970811899688852E+002	9.1425985E-002	9.1286093E-002	6.988572955176835E-004	2.000000000000000E+000	-1.4050721E-005	6.3795952E-008
2	0	0	1	1	3.970945899685466E+002	8.8071711E-002	8.7915570E-002	6.188565193497228E-004	2.000000000000000E+000	-1.4042467E-005	5.4407124E-008
2	0	0	1	1	3.971077899682132E+002	8.4761865E-002	8.4622420E-002	5.542870523464047E-004	2.000000000000000E+000	-1.4035280E-005	4.6905111E-008
2	0	0	0	1	3.971211899678747E+002	8.1413150E-002	8.1290334E-002	4.933863977056628E-004	2.000000000000000E+000	-1.4028830E-005	4.0107544E-008
2	0	0	1	1	3.971345899675362E+002	7.8064427E-002	7.7958994E-002	4.358236118251731E-004	2.000000000000000E+000	-1.4023170E-005	3.3976370E-008
2	0	0	1	1	3.971477899672027E+002	7.4765682E-002	7.4612655E-002	3.807015226875076E-004	2.000000000000000E+000	-1.4018336E-005	2.8405152E-008
2	0	0	0	1	3.971611899668642E+002	7.1416959E-002	7.1280599E-002	3.326423689739193E-004	2.000000000000000E+000	-1.4014106E-005	2.3710948E-008
2	0	0	1	1	3.971745899665257E+002	6.8068244E-002	6.7954443E-002	2.850194207477822E-004	2.000000000000000E+000	-1.4010509E-005	1.9368336E-008
2	0	0	1	1	3.971877899661922E+002	6.4769499E-002	6.4656049E-002	2.415964337337253E-004	2.000000000000000E+000	-1.4007583E-005	1.5620671E-008
2	0	0	0	1	3.972011899658537E+002	6.1420776E-002	6.1302144E-002	1.958806494239220E-004	2.000000000000000E+000	-1.4005212E-005	1.2007904E-008
2	0	0	1	1	3.972145899655152E+002	5.8072053E-002	5.7971165E-002	1.547500994838133E-004	2.000000000000000E+000	-1.4003401E-005	8.9710435E-009
2	0	0	1	1	3.972277899651817E+002	5.4773308E-002	5.4655384E-002	1.115685334099224E-004	2.000000000000000E+000	-1.4002188E-005	6.0978209E-009
2	0	0	0	1	3.972564899644567E+002	4.7592718E-002	4.7428921E-002	1.053222759070835E-005	2.000000000000000E+000	-1.4002140E-005	4.9953219E-010
2	0	0	0	1	3.972851899637317E+002	4.0412128E-002	4.0188868E-002	-8.872779320875492E-005	2.000000000000000E+000	-1.4003253E-005	3.5658696E-009
2	0	0	0	1	3.972983899633982E+002	3.7113387E-002	3.6884144E-002	-1.227788177592025E-004	2.000000000000000E+000	-1.4004724E-005	4.5285917E-009
2	0	0	1	1	3.973117899630597E+002	3.3764664E-002	3.3536062E-002	-1.606422234273291E-004	2.000000000000000E+000	-1.4006711E-005	5.3873075E-009
2	0	0	0	1	3.973251899627212E+002	3.0415941E-002	3.0175669E-002	-1.946930233240590E-004	2.000000000000000E+000	-1.4009173E-005	5.8749920E-009
2	0	0	0	1	3.973383899623877E+002	2.7117200E-002	2.6875719E-002	-2.265805181246435E-004	2.000000000000000E+000	-1.4012031E-005	6.0895142E-009
2	0	0	1	1	3.973517899620492E+002	2.3768479E-002	2.3529474E-002	-2.627277546543554E-004	2.000000000000000E+000	-1.4015399E-005	6.1818457E-009
2	0	0	0	1	3.973651899617107E+002	2.0419756E-002	2.0200940E-002	-2.921948836766804E-004	2.000000000000000E+000	-1.4019190E-005	5.9026113E-009
2	0	0	0	1	3.973783899613773E+002	1.7121015E-002	1.6887831E-002	-3.253171522209814E-004	2.000000000000000E+000	-1.4023344E-005	5.4939009E-009
2	0	0	1	1	3.973917899610387E+002	1.3772295E-002	1.3544924E-002	-3.583962238445162E-004	2.000000000000000E+000	-1.4028013E-005	4.8544493E-009
2	0	0	0	1	3.974051899607002E+002	1.0423573E-002	1.0185740E-002	-3.916714487685446E-004	2.000000000000000E+000	-1.4033124E-005	3.9894634E-009
2	0	0	0	1	3.974183899603668E+002	7.1248319E-003	6.8757758E-003	-4.207679119872399E-004	2.000000000000000E+000	-1.4038561E-005	2.8931058E-009
2	0	0	1	1	3.974317899600283E+002	3.7761102E-003	3.5165609E-003	-4.536208801684764E-004	2.000000000000000E+000	-1.4044504E-005	1.5951854E-009
2	0	0	0	1	3.974450899596923E+002	4.4404870E-004	1.6619491E-004	-4.881735228035866E-004	2.000000000000000E+000	-1.4050838E-005	8.1131955E-011
2	0	0	0	1	3.974583899593563E+002	-2.8880138E-003	-3.1794563E-003	-5.131479633898053E-004	2.000000000000000E+000	-1.4057583E-005	1.6315316E-009
2	0	0	1	1	3.974717899590178E+002	-6.2367371E-003	-6.5192143E-003	-5.426880249817453E-004	2.000000000000000E+000	-1.4064732E-005	3.5378995E-009
2	0	0	1	1	3.974849899586843E+002	-9.5354794E-003	-9.8163048E-003	-5.739598465475475E-004	2.000000000000000E+000	-1.4072174E-005	5.6341647E-009
2	0	0	0	1	3.974983899583458E+002	-1.2884203E-002	-1.3170084E-002	-6.020843967816172E-004	2.000000000000000E+000	-1.4080136E-005	7.9295024E-009
2	0	0	1	1	3.975117899580073E+002	-1.6232926E-002	-1.6512990E-002	-6.298723561586582E-004	2.000000000000000E+000	-1.4088469E-005	1.0401076E-008
2	0	0	1	1	3.975249899576738E+002	-1.9531669E-002	-1.9818440E-002	-6.579493466915658E-004	2.000000000000000E+000	-1.4097042E-005	1.3039529E-008
2	0	0	0	1	3.975383899573353E+002	-2.2880392E-002	-2.3149487E-002	-6.873120716970015E-004	2.000000000000000E+000	-1.4106141E-005	1.5910922E-008
2	0	0	1	1	3.975517899569968E+002	-2.6229115E-002	-2.6490647E-002	-7.142472284613170E-004	2.000000000000000E+000	-1.4115614E-005	1.8920872E-008
2	0	0	1	1	3.975649899566633E+002	-2.9527858E-002	-2.9797049E-002	-7.444362632870426E-004	2.000000000000000E+000	-1.4125321E-005	2.2182004E-008
2	0	0	0	1	3.975783899563248E+002	-3.2876581E-002	-3.3146221E-002	-7.731318554179863E-004	2.000000000000000E+000	-1.4135578E-005	2.5626399E-008
2	0	0	1	1	3.975917899559863E+002	-3.6225304E-002	-3.6499776E-002	-7.990912089199873E-004	2.000000000000000E+000	-1.4146193E-005	2.9166650E-008
2	0	0	1	1	3.976049899556529E+002	-3.9524049E-002	-3.9809585E-002	-8.289203113589667E-004	2.000000000000000E+000	-1.4157010E-005	3.2998972E-008
2	0	0	0	1	3.976183899553143E+002	-4.2878322E-002	-4.3165013E-002	-8.588119805608592E-004	2.000000000000000E+000	-1.4168410E-005	3.7070631E-008
2	0	0	0	1	3.976315899549809E+002	-4.6188176E-002	-4.6471365E-002	-8.837174718337310E-004	2.000000000000000E+000	-1.4179987E-005	4.1067558E-008
2	0	0	1	1	3.976449899546424E+002	-4.9536895E-002	-4.9832169E-002	-9.114577786931456E-004	2.000000000000000E+000	-1.4192103E-005	4.5419917E-008
2	0	0	0	1	3.976583899543039E+002	-5.2885622E-002	-5.3185504E-002	-9.400866483853521E-004	2.000000000000000E+000	-1.4204590E-005	4.9998981E-008
2	0	0	0	1	3.976715899539704E+002	-5.6184363E-002	-5.6485519E-002	-9.663575596126368E-004	2.000000000000000E+000	-1.4217247E-005	5.4585207E-008
2	0	0	1	1	3.976849899536319E+002	-5.9533086E-002	-5.9835542E-002	-9.934901383985562E-004	2.000000000000000E+000	-1.4230457E-005	5.9446020E-008
2	0	0	0	1	3.977136899529069E+002	-6.6718161E-002	-6.6931434E-002	-1.029263971175505E-003	2.000000000000000E+000	-1.4260052E-005	6.8890117E-008
2	0	0	0	1	3.977423899521818E+002	-7.3877618E-002	-7.4087322E-002	-1.078421512016169E-003	2.000000000000000E+000	-1.4290483E-005	7.9897362E-008
2	0	0	0	1	3.977555899518484E+002	-7.7176362E-002	-7.7389181E-002	-1.104471741938242E-003	2.000000000000000E+000	-1.4305420E-005	8.5474163E-008
2	0	0	1	1	3.977689899515099E+002	-8.0525078E-002	-8.0726236E-002	-1.132833310500950E-003	2.000000000000000E+000	-1.4320947E-005	9.1449373E-008
2	0	0	0	1	3.977823899511714E+002	-8.3873801E-002	-8.4069066E-002	-1.160235360248407E-003	2.000000000000000E+000	-1.4336839E-005	9.7539903E-008
2	0	0	0	1	3.977955899508379E+002	-8.7183654E-002	-8.7363623E-002	-1.191205557910909E-003	2.000000000000000E+000	-1.4352891E-005	1.0406804E-007
2	0	0	1	1	3.978089899504994E+002	-9.0537928E-002	-9.0711735E-002	-1.217581366457429E-003	2.000000000000000E+000	-1.4369564E-005	1.1044892E-007
2	0	0	1	1	3.978221899501659E+002	-9.3836680E-002	-9.4005689E-002	-1.248565724725060E-003	2.000000000000000E+000	-1.4386366E-005	1.1737228E-007
2	0	0	0	1	3.978355899498274E+002	-9.7185403E-002	-9.7365737E-002	-1.278893609454219E-003	2.000000000000000E+000	-1.4403843E-005	1.2452041E-007
2	0	0	1	1	3.978489899494889E+002	-1.0053412E-001	-1.0071408E-001	-1.306921855944488E-003	2.000000000000000E+000	-1.4421701E-005	1.3162543E-007
2	0	0	1	1	3.978621899491554E+002	-1.0383287E-001	-1.0401288E-001	-1.339912863335888E-003	2.000000000000000E+000	-1.4439703E-005	1.3936820E-007
2	0	0	0	1	3.978755899488169E+002	-1.0718159E-001	-1.0734310E-001	-1.367921353827720E-003	2.000000000000000E+000	-1.4458386E-005	1.4683692E-007
2	0	0	1	1	3.978889899484784E+002	-1.1053031E-001	-1.1069027E-001	-1.403854696415388E-003	2.000000000000000E+000	-1.4477485E-005	1.5539305E-007
2	0	0	1	1	3.979021899481450E+002	-1.1382905E-001	-1.1399654E-001	-1.438022520814132E-003	2.000000000000000E+000	-1.4496766E-005	1.6392958E-007
2	0	0	0	1	3.979155899478064E+002	-1.1717777E-001	-1.1735195E-001	-1.471022227102971E-003	2.000000000000000E+000	-1.4516802E-005	1.7262732E-007
2	0	0	1	1	3.979289899474679E+002	-1.2052650E-001	-1.2069280E-001	-1.506817391590526E-003	2.000000000000000E+000	-1.4537295E-005	1.8186201E-007
2	0	0	1	1	3.979421899471345E+002	-1.2382524E-001	-1.2399010E-001	-1.543755363794246E-003	2.000000000000000E+000	-1.4557963E-005	1.9141039E-007
2	0	0	0	1	3.979555899467960E+002	-1.2717398E-001	-1.2735032E-001	-1.585146717737490E-003	2.000000000000000E+000	-1.4579487E-005	2.0186893E-007
2	0	0	1	1	3.979688899464600E+002	-1.3050604E-001	-1.3069238E-001	-1.626011657948363E-003	2.000000000000000E+000	-1.4601387E-005	2.1250733E-007
2	0	0	1	1	3.979821899461240E+002	-1.3383810E-001	-1.3402648E-001	-1.667506959771942E-003	2.000000000000000E+000	-1.4623852E-005	2.2349009E-007
2	0	0	0	1	3.979955899457855E+002	-1.3718681E-001	-1.3738805E-001	-1.712609947743554E-003	2.000000000000000E+000	-1.4647046E-005	2.3529215E-007
2	0	0	0	1	3.980087899454520E+002	-1.4048555E-001	-1.4069411E-001	-1.759705977777533E-003	2.000000000000000E+000	-1.4670501E-005	2.4758026E-007
2	0	0	1	1	3.980221899451135E+002	-1.4383428E-001	-1.4404295E-001	-1.810386377463950E-003	2.000000000000000E+000	-1.4694964E-005	2.6077339E-007
2	0	0	0	1	3.980355899447750E+002	-1.4718302E-001	-1.4738722E-001	-1.861609195990845E-003	2.000000000000000E+000	-1.4720104E-005	2.7437741E-007
2	0	0	0	1	3.980487899444415E+002	-1.5048175E-001	-1.5067199E-001	-1.921328505492665E-003	2.000000000000000E+000	-1.4745605E-005	2.8949037E-007
2	0	0	1	1	3.980621899441030E+002	-1.5383047E-001	-1.5402150E-001	-1.980146449376562E-003	2.000000000000000E+000	-1.4772296E-005	3.0498512E-007
2	0	0	0	1	3.980755899437645E+002	-1.5717919E-001	-1.5737352E-001	-2.043780611974293E-003	2.000000000000000E+000	-1.4799807E-005	3.2163695E-007
2	0	0	0	1	3.980887899434310E+002	-1.6047794E-001	-1.6067275E-001	-2.113347580123236E-003	2.000000000000000E+000	-1.4827801E-005	3.3955737E-007
2	0	0	1	1	3.981021899430925E+002	-1.6382667E-001	-1.6403700E-001	-2.188139312470919E-003	2.000000000000000E+000	-1.4857183E-005	3.5893581E-007
2	0	0	0	1	3.981155899427540E+002	-1.6717538E-001	-1.6739458E-001	-2.263331572238609E-003	2.000000000000000E+000	-1.4887545E-005	3.7886943E-007
2	0	0	0	1	3.981287899424206E+002	-1.7047413E-001	-1.7069685E-001	-2.348770557768547E-003	2.000000000000000E+000	-1.4918531E-005	4.0092775E-007
2	0	0	1	1	3.981421899420820E+002	-1.7382841E-001	-1.7403106E-001	-2.435068175024448E-003	2.000000000000000E+000	-1.4951129E-005	4.2377749E-007
2	0	0	1	1	3.981553899417486E+002	-1.7713827E-001	-1.7734122E-001	-2.527516828326448E-003	2.000000000000000E+000	-1.4984429E-005	4.4823292E-007
2	0	0	0	1	3.981687899414101E+002	-1.8048698E-001	-1.8070178E-001	-2.630936302133083E-003	2.000000000000000E+000	-1.5019551E-005	4.7541488E-007
2	0	0	1	1	3.981821899410716E+002	-1.8383570E-001	-1.8406272E-001	-2.733430955868255E-003	2.000000000000000E+000	-1.5056032E-005	5.0312275E-007
2	0	0	1	1	3.981953899407381E+002	-1.8713444E-001	-1.8735054E-001	-2.842125846190272E-003	2.000000000000000E+000	-1.5093377E-005	5.3247379E-007
2	0	0	0	1	3.982087899403996E+002	-1.9048317E-001	-1.9069274E-001	-2.954962272320276E-003	2.000000000000000E+000	-1.5132805E-005	5.6348983E-007
2	0	0	1	1	3.982221899400611E+002	-1.9383188E-001	-1.9404049E-001	-3.069976299047976E-003	2.000000000000000E+000	-1.5173731E-005	5.9569970E-007
2	0	0	1	1	3.982353899397276E+002	-1.9713062E-001	-1.9733681E-001	-3.192649160700965E-003	2.000000000000000E+000	-1.5215633E-005	6.3002722E-007
2	0	0	0	1	3.982487899393891E+002	-2.0047936E-001	-2.0067610E-001	-3.312764348993372E-003	2.000000000000000E+000	-1.5259808E-005	6.6479265E-007
2	0	0	1	1	3.982621899390506E+002	-2.0382807E-001	-2.0404533E-001	-3.452098180746863E-003	2.000000000000000E+000	-1.5305690E-005	7.0438449E-007
2	0	0	1	1	3.982753899387171E+002	-2.0712683E-001	-2.0731892E-001	-3.577138205299771E-003	2.000000000000000E+000	-1.5352640E-005	7.4160840E-007
2	0	0	0	1	3.982887899383786E+002	-2.1047556E-001	-2.1069391E-001	-3.718552797808014E-003	2.000000000000000E+000	-1.5402084E-005	7.8347642E-007
2	0	0	1	1	3.983021899380401E+002	-2.1382427E-001	-2.1405441E-001	-3.856463253153697E-003	2.000000000000000E+000	-1.5453415E-005	8.2549298E-007
2	0	0	1	1	3.983153899377066E+002	-2.1712857E-001	-2.1736199E-001	-3.989501260103778E-003	2.000000000000000E+000	-1.5505744E-005	8.6716591E-007
2	0	0	0	1	3.983287899373681E+002	-2.2048840E-001	-2.2069445E-001	-4.119612372131903E-003	2.000000000000000E+000	-1.5560627E-005	9.0917558E-007
2	0	0	0	1	3.983419899370347E+002	-2.2378713E-001	-2.2402062E-001	-4.251080056039618E-003	2.000000000000000E+000	-1.5616448E-005	9.5232957E-007
2	0	0	1	1	3.983553899366962E+002	-2.2713585E-001	-2.2737776E-001	-4.384844137429251E-003	2.000000000000000E+000	-1.5674887E-005	9.9701606E-007
2	0	0	0	1	3.983687899363576E+002	-2.3048458E-001	-2.3070006E-001	-4.506356218270322E-003	2.000000000000000E+000	-1.5735033E-005	1.0396167E-006
2	0	0	0	1	3.983819899360242E+002	-2.3378330E-001	-2.3399903E-001	-4.633811841227319E-003	2.000000000000000E+000	-1.5795931E-005	1.0843074E-006
2	0	0	1	1	3.983953899356857E+002	-2.3713203E-001	-2.3735388E-001	-4.751649127845467E-003	2.000000000000000E+000	-1.5859376E-005	1.1278223E-006
2	0	0	0	1	3.984087899353472E+002	-2.4048075E-001	-2.4067484E-001	-4.862957144056655E-003	2.000000000000000E+000	-1.5924346E-005	1.1703914E-006
2	0	0	0	1	3.984219899350137E+002	-2.4377950E-001	-2.4400724E-001	-4.974497044592368E-003	2.000000000000000E+000	-1.5989834E-005	1.2138133E-006
2	0	0	1	1	3.984353899346752E+002	-2.4712822E-001	-2.4735563E-001	-5.071330791765321E-003	2.000000000000000E+000	-1.6057680E-005	1.2544222E-006
2	0	0	0	1	3.984487899343367E+002	-2.5047699E-001	-2.5069991E-001	-5.144404143801594E-003	2.000000000000000E+000	-1.6126676E-005	1.2897017E-006
2	0	0	0	1	3.984619899340032E+002	-2.5377572E-001	-2.5399223E-001	-5.214721220909269E-003	2.000000000000000E+000	-1.6195558E-005	1.3244987E-006
2	0	0	1	1	3.984753899336647E+002	-2.5712442E-001	-2.5732920E-001	-5.292264944728231E-003	2.000000000000000E+000	-1.6266484E-005	1.3618543E-006
2	0	0	0	1	3.984886899333287E+002	-2.6045084E-001	-2.6065028E-001	-5.355466918850957E-003	2.000000000000000E+000	-1.6337834E-005	1.3959040E-006
2	0	0	0	1	3.985019899329927E+002	-2.6378858E-001	-2.6400396E-001	-5.407628716966435E-003	2.000000000000000E+000	-1.6409955E-005	1.4276354E-006
2	0	0	1	1	3.985153899326542E+002	-2.6713726E-001	-2.6734909E-001	-5.442896817637814E-003	2.000000000000000E+000	-1.6483198E-005	1.4551536E-006
2	0	0	1	1	3.985285899323208E+002	-2.7043602E-001	-2.7063650E-001	-5.467753182650387E-003	2.000000000000000E+000	-1.6555772E-005	1.4797736E-006
2	0	0	0	1	3.985419899319822E+002	-2.7378476E-001	-2.7397764E-001	-5.482311523761996E-003	2.000000000000000E+000	-1.6629680E-005	1.5020307E-006
2	0	0	1	1	3.985553899316437E+002	-2.7713346E-001	-2.7731726E-001	-5.489028263865381E-003	2.000000000000000E+000	-1.6703692E-005	1.5222023E-006
2	0	0	1	1	3.985685899313103E+002	-2.8043222E-001	-2.8062704E-001	-5.496232664457548E-003	2.000000000000000E+000	-1.6776681E-005	1.5423915E-006
2	0	0	0	1	3.985819899309718E+002	-2.8378093E-001	-2.8397378E-001	-5.498960896208382E-003	2.000000000000000E+000	-1.6850849E-005	1.5615607E-006
2	0	0	1	1	3.985953899306332E+002	-2.8712964E-001	-2.8732902E-001	-5.481283926524652E-003	2.000000000000000E+000	-1.6924920E-005	1.5749320E-006
2	0	0	1	1	3.986085899302998E+002	-2.9042840E-001	-2.9061130E-001	-5.464666819615466E-003	2.000000000000000E+000	-1.6997657E-005	1.5880939E-006
2	0	0	0	1	3.986219899299613E+002	-2.9377714E-001	-2.9395342E-001	-5.430724066678119E-003	2.000000000000000E+000	-1.7071179E-005	1.5963799E-006
2	0	0	1	1	3.986353899296228E+002	-2.9712585E-001	-2.9733518E-001	-5.419812749338837E-003	2.000000000000000E+000	-1.7144404E-005	1.6115010E-006
2	0	0	1	1	3.986485899292893E+002	-3.0042461E-001	-3.0063999E-001	-5.384816843494865E-003	2.000000000000000E+000	-1.7216216E-005	1.6188912E-006
2	0	0	0	1	3.986619899289508E+002	-3.0377331E-001	-3.0399537E-001	-5.341726141462735E-003	2.000000000000000E+000	-1.7288608E-005	1.6238600E-006
2	0	0	0	1	3.986751899286173E+002	-3.0708870E-001	-3.0730695E-001	-5.314840460717568E-003	2.000000000000000E+000	-1.7359456E-005	1.6332874E-006
2	0	0	1	1	3.986885899282788E+002	-3.1043744E-001	-3.1065315E-001	-5.279152090022554E-003	2.000000000000000E+000	-1.7430963E-005	1.6399853E-006
2	0	0	0	1	3.987019899279403E+002	-3.1378615E-001	-3.1402653E-001	-5.237265576660204E-003	2.000000000000000E+000	-1.7501947E-005	1.6446404E-006
2	0	0	0	1	3.987151899276068E+002	-3.1708491E-001	-3.1731355E-001	-5.209563573225745E-003	2.000000000000000E+000	-1.7571412E-005	1.6530652E-006
2	0	0	1	1	3.987285899272683E+002	-3.2043362E-001	-3.2062402E-001	-5.156193443488308E-003	2.000000000000000E+000	-1.7641369E-005	1.6531994E-006
2	0	0	0	1	3.987419899269298E+002	-3.2378232E-001	-3.2397771E-001	-5.128796081104725E-003	2.000000000000000E+000	-1.7710794E-005	1.6616156E-006
2	0	0	0	1	3.987551899265964E+002	-3.2708105E-001	-3.2728323E-001	-5.095225928036795E-003	2.000000000000000E+000	-1.7778768E-005	1.6675821E-006
2	0	0	1	1	3.987685899262578E+002	-3.3042979E-001	-3.3064950E-001	-5.055143081113361E-003	2.000000000000000E+000	-1.7847309E-005	1.6714805E-006
2	0	0	0	1	3.987819899259193E+002	-3.3377850E-001	-3.3399540E-001	-5.024617527002768E-003	2.000000000000000E+000	-1.7915358E-005	1.6781992E-006
2	0	0	0	1	3.987951899255859E+002	-3.3707726E-001	-3.3729634E-001	-4.995172725385702E-003	2.000000000000000E+000	-1.7981998E-005	1.6848535E-006
2	0	0	1	1	3.988085899252474E+002	-3.4042597E-001	-3.4067321E-001	-4.967111676483508E-003	2.000000000000000E+000	-1.8049259E-005	1.6921618E-006
2	0	0	0	1	3.988219899249088E+002	-3.4377474E-001	-3.4402624E-001	-4.925829743478979E-003	2.000000000000000E+000	-1.8116054E-005	1.6946146E-006
2	0	0	0	1	3.988351899245754E+002	-3.4707344E-001	-3.4732237E-001	-4.904028140905820E-003	2.000000000000000E+000	-1.8181445E-005	1.7032787E-006
2	0	0	1	1	3.988485899242369E+002	-3.5043332E-001	-3.5067919E-001	-4.890521201175738E-003	2.000000000000000E+000	-1.8247592E-005	1.7150040E-006
2	0	0	1	1	3.988617899239034E+002	-3.5373759E-001	-3.5397908E-001	-4.865764760810035E-003	2.000000000000000E+000	-1.8312508E-005	1.7223789E-006
2	0	0	0	1	3.988751899235649E+002	-3.5708633E-001	-3.5733014E-001	-4.840231969077038E-003	2.000000000000000E+000	-1.8378058E-005	1.7295608E-006
2	0	0	1	1	3.988885899232264E+002	-3.6043507E-001	-3.6067072E-001	-4.819305709356236E-003	2.000000000000000E+000	-1.8443294E-005	1.7381824E-006
2	0	0	1	1	3.989017899228929E+002	-3.6373383E-001	-3.6396915E-001	-4.794632125797057E-003	2.000000000000000E+000	-1.8507253E-005	1.7450982E-006
2	0	0	0	1	3.989151899225544E+002	-3.6708254E-001	-3.6729783E-001	-4.787385597976229E-003	2.000000000000000E+000	-1.8571987E-005	1.7583964E-006
2	0	0	1	1	3.989285899222159E+002	-3.7043121E-001	-3.7065843E-001	-4.775809664271137E-003	2.000000000000000E+000	-1.8636569E-005	1.7701941E-006
2	0	0	1	1	3.989417899218824E+002	-3.7373000E-001	-3.7395006E-001	-4.762605224459530E-003	2.000000000000000E+000	-1.8700050E-005	1.7809765E-006
2	0	0	0	1	3.989551899215439E+002	-3.7707871E-001	-3.7732181E-001	-4.748120562342389E-003	2.000000000000000E+000	-1.8764305E-005	1.7915694E-006
2	0	0	1	1	3.989685899212054E+002	-3.8042745E-001	-3.8064820E-001	-4.737848890807883E-003	2.000000000000000E+000	-1.8828394E-005	1.8034536E-006
2	0	0	1	1	3.989817899208720E+002	-3.8372618E-001	-3.8398382E-001	-4.736761950334754E-003	2.000000000000000E+000	-1.8891427E-005	1.8188399E-006
2	0	0	0	1	3.989951899205334E+002	-3.8707492E-001	-3.8730657E-001	-4.715590195923547E-003	2.000000000000000E+000	-1.8955288E-005	1.8263790E-006
2	0	0	1	1	3.990085899201949E+002	-3.9042366E-001	-3.9067107E-001	-4.720861057547956E-003	2.000000000000000E+000	-1.9019057E-005	1.8443038E-006
2	0	0	1	1	3.990217899198615E+002	-3.9373350E-001	-3.9398137E-001	-4.716319922469358E-003	2.000000000000000E+000	-1.9081866E-005	1.8581421E-006
2	0	0	0	1	3.990351899195230E+002	-3.9708772E-001	-3.9735043E-001	-4.713316785657479E-003	2.000000000000000E+000	-1.9145584E-005	1.8728384E-006
2	0	0	0	1	3.990483899191895E+002	-4.0038651E-001	-4.0063369E-001	-4.706144702585228E-003	2.000000000000000E+000	-1.9208257E-005	1.8854402E-006
2	0	0	1	1	3.990617899188510E+002	-4.0373519E-001	-4.0397125E-001	-4.709686244213009E-003	2.000000000000000E+000	-1.9271867E-005	1.9025779E-006
2	0	0	0	1	3.990751899185125E+002	-4.0708393E-001	-4.0732765E-001	-4.712320050708110E-003	2.000000000000000E+000	-1.9335503E-005	1.9194583E-006
2	0	0	0	1	3.990883899181790E+002	-4.1038266E-001	-4.1061631E-001	-4.704787741017458E-003	2.000000000000000E+000	-1.9398150E-005	1.9318625E-006
2	0	0	1	1	3.991017899178405E+002	-4.1373140E-001	-4.1396841E-001	-4.709043864487381E-003	2.000000000000000E+000	-1.9461737E-005	1.9493955E-006
2	0	0	0	1	3.991151899175020E+002	-4.1708010E-001	-4.1733992E-001	-4.718972974074462E-003	2.000000000000000E+000	-1.9525409E-005	1.9694157E-006
2	0	0	0	1	3.991283899171685E+002	-4.2037886E-001	-4.2062348E-001	-4.720354870025589E-003	2.000000000000000E+000	-1.9588206E-005	1.9854922E-006
2	0	0	1	1	3.991417899168300E+002	-4.2372757E-001	-4.2397785E-001	-4.717656367130171E-003	2.000000000000000E+000	-1.9651956E-005	2.0001819E-006
2	0	0	0	1	3.991551899164915E+002	-4.2707631E-001	-4.2729002E-001	-4.722803506552326E-003	2.000000000000000E+000	-1.9715715E-005	2.0180069E-006
2	0	0	0	1	3.991683899161580E+002	-4.3037507E-001	-4.3058702E-001	-4.736091493012072E-003	2.000000000000000E+000	-1.9778654E-005	2.0392995E-006
2	0	0	1	1	3.991817899158195E+002	-4.3372378E-001	-4.3393880E-001	-4.736956199505772E-003	2.000000000000000E+000	-1.9842662E-005	2.0555492E-006
2	0	0	0	1	3.991950899154836E+002	-4.3705586E-001	-4.3729568E-001	-4.746388188842146E-003	2.000000000000000E+000	-1.9906236E-005	2.0755751E-006
2	0	0	0	1	3.992083899151476E+002	-4.4038790E-001	-4.4061404E-001	-4.753658864279309E-003	2.000000000000000E+000	-1.9969950E-005	2.0945288E-006
2	0	0	1	1	3.992217899148091E+002	-4.4373661E-001	-4.4396204E-001	-4.768479991354165E-003	2.000000000000000E+000	-2.0034257E-005	2.1170240E-006
2	0	0	1	1	3.992349899144756E+002	-4.4703537E-001	-4.4725689E-001	-4.779949855805571E-003	2.000000000000000E+000	-2.0097799E-005	2.1378655E-006
2	0	0	0	1	3.992483899141371E+002	-4.5038408E-001	-4.5059437E-001	-4.781248833771498E-003	2.000000000000000E+000	-2.0162379E-005	2.1544038E-006
2	0	0	1	1	3.992617899137986E+002	-4.5373282E-001	-4.5392540E-001	-4.799231420555649E-003	2.000000000000000E+000	-2.0227057E-005	2.1784931E-006
2	0	0	1	1	3.992749899134651E+002	-4.5703158E-001	-4.5724297E-001	-4.804620892981698E-003	2.000000000000000E+000	-2.0290960E-005	2.1968790E-006
2	0	0	0	1	3.992883899131266E+002	-4.6038029E-001	-4.6058089E-001	-4.823308900106171E-003	2.000000000000000E+000	-2.0355988E-005	2.2215238E-006
2	0	0	1	1	3.993017899127881E+002	-4.6372902E-001	-4.6391407E-001	-4.832404296212206E-003	2.000000000000000E+000	-2.0421214E-005	2.2418203E-006
2	0	0	1	1	3.993149899124546E+002	-4.6702772E-001	-4.6724632E-001	-4.855514550197563E-003	2.000000000000000E+000	-2.0485690E-005	2.2687213E-006
2	0	0	0	1	3.993283899121161E+002	-4.7037646E-001	-4.7060901E-001	-4.865369258408837E-003	2.000000000000000E+000	-2.0551355E-005	2.2896866E-006
2	0	0	1	1	3.993417899117776E+002	-4.7372517E-001	-4.7393996E-001	-4.874895908081579E-003	2.000000000000000E+000	-2.0617143E-005	2.3104080E-006
2	0	0	1	1	3.993549899114441E+002	-4.7702393E-001	-4.7725582E-001	-4.901471624867162E-003	2.000000000000000E+000	-2.0682199E-005	2.3392558E-006
2	0	0	0	1	3.993683899111056E+002	-4.8037824E-001	-4.8062044E-001	-4.919723714172319E-003	2.000000000000000E+000	-2.0748548E-005	2.3645198E-006
2	0	0	0	1	3.993815899107722E+002	-4.8368803E-001	-4.8391360E-001	-4.938833472038412E-003	2.000000000000000E+000	-2.0814141E-005	2.3899686E-006
2	0	0	1	1	3.993949899104337E+002	-4.8703676E-001	-4.8727253E-001	-4.950497428257622E-003	2.000000000000000E+000	-2.0880922E-005	2.4122414E-006
2	0	0	0	1	3.994083899100951E+002	-4.9038547E-001	-4.9061090E-001	-4.967197458790928E-003	2.000000000000000E+000	-2.0947899E-005	2.4369613E-006
2	0	0	0	1	3.994215899097617E+002	-4.9368423E-001	-4.9390984E-001	-4.992852923714943E-003	2.000000000000000E+000	-2.1014146E-005	2.4660192E-006
2	0	0	1	1	3.994349899094232E+002	-4.9703297E-001	-4.9725321E-001	-5.015446469304963E-003	2.000000000000000E+000	-2.1081736E-005	2.4939468E-006
2	0	0	0	1	3.994483899090847E+002	-5.0038165E-001	-5.0061285E-001	-5.036080784116659E-003	2.000000000000000E+000	-2.1149617E-005	2.5211268E-006
2	0	0	0	1	3.994615899087512E+002	-5.0368041E-001	-5.0390661E-001	-5.056129899639925E-003	2.000000000000000E+000	-2.1216754E-005	2.5478173E-006
2	0	0	1	1	3.994749899084127E+002	-5.0702918E-001	-5.0725359E-001	-5.079458098104318E-003	2.000000000000000E+000	-2.1285216E-005	2.5765733E-006
2	0	0	0	1	3.994883899080742E+002	-5.1037788E-001	-5.1061261E-001	-5.102359928666089E-003	2.000000000000000E+000	-2.1353950E-005	2.6053292E-006
2	0	0	0	1	3.995015899077407E+002	-5.1367664E-001	-5.1391691E-001	-5.131835716302824E-003	2.000000000000000E+000	-2.1422025E-005	2.6373370E-006
2	0	0	1	1	3.995149899074022E+002	-5.1702535E-001	-5.1724213E-001	-5.156473297514220E-003	2.000000000000000E+000	-2.1491513E-005	2.6671453E-006
2	0	0	0	1	3.995283899070637E+002	-5.2037412E-001	-5.2058685E-001	-5.188940584836609E-003	2.000000000000000E+000	-2.1561384E-005	2.7012943E-006
2	0	0	0	1	3.995415899067302E+002	-5.2367836E-001	-5.2392191E-001	-5.215211664209247E-003	2.000000000000000E+000	-2.1630576E-005	2.7323636E-006
2	0	0	1	1	3.995549899063917E+002	-5.2703822E-001	-5.2726841E-001	-5.247206011679537E-003	2.000000000000000E+000	-2.1701213E-005	2.7666861E-006
2	0	0	1	1	3.995681899060583E+002	-5.3033698E-001	-5.3055066E-001	-5.271595575989843E-003	2.000000000000000E+000	-2.1771184E-005	2.7968485E-006
2	0	0	0	1	3.995815899057197E+002	-5.3368568E-001	-5.3389245E-001	-5.309315671891274E-003	2.000000000000000E+000	-2.1842627E-005	2.8346035E-006
2	0	0	1	1	3.995949899053812E+002	-5.3703445E-001	-5.3725255E-001	-5.345797743777643E-003	2.000000000000000E+000	-2.1914548E-005	2.8720435E-006
2	0	0	1	1	3.996081899050478E+002	-5.4033315E-001	-5.4053706E-001	-5.381810835893286E-003	2.000000000000000E+000	-2.1985874E-005	2.9090681E-006
2	0	0	0	1	3.996215899047093E+002	-5.4368186E-001	-5.4393452E-001	-5.417072512237706E-003	2.000000000000000E+000	-2.2058766E-005	2.9465327E-006
2	0	0	1	1	3.996349899043707E+002	-5.4703063E-001	-5.4726863E-001	-5.453645082262565E-003	2.000000000000000E+000	-2.2132112E-005	2.9846090E-006
2	0	0	1	1	3.996481899040373E+002	-5.5032933E-001	-5.5055308E-001	-5.494921902431497E-003	2.000000000000000E+000	-2.2204924E-005	3.0252461E-006
2	0	0	0	1	3.996615899036988E+002	-5.5367810E-001	-5.5392784E-001	-5.546622021231275E-003	2.000000000000000E+000	-2.2279477E-005	3.0724284E-006
2	0	0	1	1	3.996749899033603E+002	-5.5702674E-001	-5.5727410E-001	-5.587286494988422E-003	2.000000000000000E+000	-2.2354599E-005	3.1136501E-006
2	0	0	1	1	3.996881899030268E+002	-5.6032550E-001	-5.6055677E-001	-5.628879548506410E-003	2.000000000000000E+000	-2.2429149E-005	3.1553066E-006
2	0	0	0	1	3.997015899026883E+002	-5.6367421E-001	-5.6391871E-001	-5.687744767379217E-003	2.000000000000000E+000	-2.2505505E-005	3.2074256E-006
2	0	0	1	1	3.997148899023523E+002	-5.6700063E-001	-5.6724948E-001	-5.732292992356849E-003	2.000000000000000E+000	-2.2581955E-005	3.2516402E-006
2	0	0	1	1	3.997281899020163E+002	-5.7033837E-001	-5.7058871E-001	-5.789708566003887E-003	2.000000000000000E+000	-2.2659133E-005	3.3035424E-006
2	0	0	0	1	3.997415899016778E+002	-5.7368702E-001	-5.7393873E-001	-5.844356350139107E-003	2.000000000000000E+000	-2.2737624E-005	3.3543024E-006
2	0	0	0	1	3.997547899013443E+002	-5.7698584E-001	-5.7724875E-001	-5.898792770333069E-003	2.000000000000000E+000	-2.2815655E-005	3.4050709E-006
2	0	0	1	1	3.997681899010058E+002	-5.8033454E-001	-5.8057225E-001	-5.958582538591550E-003	2.000000000000000E+000	-2.2895641E-005	3.4593877E-006
2	0	0	0	1	3.997815899006673E+002	-5.8368325E-001	-5.8393133E-001	-6.020945030043833E-003	2.000000000000000E+000	-2.2976428E-005	3.5158184E-006
2	0	0	0	1	3.997947899003339E+002	-5.8698201E-001	-5.8723271E-001	-6.083435607251886E-003	2.000000000000000E+000	-2.3056860E-005	3.5723924E-006
2	0	0	1	1	3.998081898999953E+002	-5.9033072E-001	-5.9058672E-001	-6.149085057970488E-003	2.000000000000000E+000	-2.3139353E-005	3.6315680E-006
2	0	0	0	1	3.998215898996568E+002	-5.9367949E-001	-5.9393704E-001	-6.225021702165490E-003	2.000000000000000E+000	-2.3222805E-005	3.6972710E-006
2	0	0	0	1	3.998347898993234E+002	-5.9697825E-001	-5.9720671E-001	-6.289043199224881E-003	2.000000000000000E+000	-2.3305936E-005	3.7558589E-006
2	0	0	1	1	3.998434898991036E+002	-5.9914780E-001	-5.9938240E-001	-6.316976432478832E-003	2.000000000000000E+000	-2.3361079E-005	3.7862844E-006
2	0	0	1	1	3.998461898990354E+002	-5.9982693E-001	-6.0006177E-001	-6.358085200190544E-003	2.000000000000000E+000	-2.3378310E-005	3.8152439E-006