EC-Lab ASCII FILE
Nb header lines : 53                          

Cyclic Voltammetry

Run on channel : 1 (SN 0696)
User : 
Electrode connection : standard
Ewe ctrl range : min = -10.00 V, max = 10.00 V
Ewe,I filtering : 50 kHz
Channel : Grounded
Acquisition started on : 05/17/2017 12:39:23
Saved on :
	File : 100 uM MB 10mM PB  second ito_07_CV_C01.mpr
	Directory : \\userfs\st659\w2k\EC-Lab\Data\ITO Characterisation 17-5-17\
	Host : 144.32.136.43
Device : SP-300 (SN 0182)
Address : USB
EC-Lab for windows v10.44 (software)
Internet server v10.44 (firmware)
Command interpretor v10.44 (firmware)
Electrode material : 
Initial state : 
Electrolyte : 
Comments : 
Cable : standard
Electrode surface area : 0.001 cm²
Characteristic mass : 0.001 g
Equivalent Weight : 0.000 g/eq.
Density : 0.000 g/cm3
Ei (V)              0.000               
vs.                 Eoc                 
dE/dt               2500.000            
dE/dt unit          mV/s                
E1 (V)              0.100               
vs.                 Ref                 
Step percent        50                  
N                   10                  
E range min (V)     -10.000             
E range max (V)     10.000              
I Range             Auto                
I Range min         Unset               
I Range max         Unset               
I Range init        Unset               
Bandwidth           8                   
E2 (V)              -0.600              
vs.                 Ref                 
nc cycles           2                   
Reverse Scan        1                   
Ef (V)              0.000               
vs.                 Eoc                 

mode	ox/red	error	control changes	counter inc.	time/s	control/V	Ewe/V	<I>/mA	cycle number	(Q-Qo)/C	P/W
2	1	0	1	1	4.249303892653552E+002	-5.9982693E-001	-6.0010374E-001	-1.804157719016075E-002	2.000000000000000E+000	-3.7949774E-006	1.0826818E-005
2	1	0	0	1	4.249314892653274E+002	-5.9716147E-001	-5.9742647E-001	-1.615814278900662E-002	2.000000000000000E+000	-3.8129178E-006	9.6533022E-006
2	1	0	0	1	4.249334892652769E+002	-5.9216338E-001	-5.9241581E-001	-1.347317320162092E-002	2.000000000000000E+000	-3.8422504E-006	7.9817210E-006
2	1	0	0	1	4.249354892652264E+002	-5.8716518E-001	-5.8740956E-001	-1.145993402598028E-002	2.000000000000000E+000	-3.8669637E-006	6.7316746E-006
2	1	0	0	1	4.249374892651758E+002	-5.8216715E-001	-5.8240587E-001	-9.883587985111991E-003	2.000000000000000E+000	-3.8881358E-006	5.7562597E-006
2	1	0	0	1	4.249394892651253E+002	-5.7716900E-001	-5.7741779E-001	-8.656816119582800E-003	2.000000000000000E+000	-3.9065462E-006	4.9985997E-006
2	1	0	0	1	4.249414892650748E+002	-5.7217097E-001	-5.7242006E-001	-7.580081860699736E-003	2.000000000000000E+000	-3.9226688E-006	4.3389909E-006
2	1	0	0	1	4.249434892650243E+002	-5.6717288E-001	-5.6742936E-001	-6.713457308150164E-003	2.000000000000000E+000	-3.9368688E-006	3.8094129E-006
2	1	0	0	1	4.249454892649737E+002	-5.6217480E-001	-5.6240249E-001	-5.949852813096707E-003	2.000000000000000E+000	-3.9494530E-006	3.3462120E-006
2	1	0	0	1	4.249474892649232E+002	-5.5717671E-001	-5.5742103E-001	-5.296557564179231E-003	2.000000000000000E+000	-3.9606307E-006	2.9524126E-006
2	1	0	0	1	4.249494892648727E+002	-5.5217856E-001	-5.5240107E-001	-4.724246113457606E-003	2.000000000000000E+000	-3.9705933E-006	2.6096786E-006
2	1	0	0	1	4.249514892648222E+002	-5.4718047E-001	-5.4741001E-001	-4.226223128878482E-003	2.000000000000000E+000	-3.9794904E-006	2.3134769E-006
2	1	0	0	1	4.249534892647716E+002	-5.4218239E-001	-5.4241014E-001	-3.771318898846694E-003	2.000000000000000E+000	-3.9874412E-006	2.0456016E-006
2	1	0	0	1	4.249554892647211E+002	-5.3718430E-001	-5.3739923E-001	-3.368921221459049E-003	2.000000000000000E+000	-3.9945403E-006	1.8104557E-006
2	1	0	0	1	4.249574892646706E+002	-5.3218621E-001	-5.3241271E-001	-3.014579782049810E-003	2.000000000000000E+000	-4.0008863E-006	1.6050005E-006
2	1	0	0	1	4.249594892646201E+002	-5.2718812E-001	-5.2743018E-001	-2.690962189717538E-003	2.000000000000000E+000	-4.0065588E-006	1.4192947E-006
2	1	0	0	1	4.249614892645695E+002	-5.2219003E-001	-5.2242500E-001	-2.390567427482894E-003	2.000000000000000E+000	-4.0116097E-006	1.2488922E-006
2	1	0	0	1	4.249634892645190E+002	-5.1719195E-001	-5.1742893E-001	-2.113586494437589E-003	2.000000000000000E+000	-4.0160849E-006	1.0936308E-006
2	1	0	0	1	4.249654892644685E+002	-5.1219380E-001	-5.1243436E-001	-1.868092153851343E-003	2.000000000000000E+000	-4.0200412E-006	9.5727466E-007
2	1	0	0	1	4.249674892644180E+002	-5.0719571E-001	-5.0743812E-001	-1.627513850634289E-003	2.000000000000000E+000	-4.0235136E-006	8.2586257E-007
2	1	0	0	1	4.249694892643674E+002	-5.0219762E-001	-5.0245130E-001	-1.414438530623053E-003	2.000000000000000E+000	-4.0265354E-006	7.1068649E-007
2	1	0	0	1	4.249714892643169E+002	-4.9719954E-001	-4.9741033E-001	-1.199837689960584E-003	2.000000000000000E+000	-4.0291261E-006	5.9681167E-007
2	1	0	0	1	4.249734892642664E+002	-4.9220142E-001	-4.9241889E-001	-1.018121846843517E-003	2.000000000000000E+000	-4.0313262E-006	5.0134241E-007
2	1	0	0	1	4.249754892642159E+002	-4.8720333E-001	-4.8743367E-001	-8.371900738539915E-004	2.000000000000000E+000	-4.0331624E-006	4.0807464E-007
2	1	0	0	1	4.249774892641653E+002	-4.8220527E-001	-4.8243821E-001	-6.728704528566384E-004	2.000000000000000E+000	-4.0346549E-006	3.2461841E-007
2	1	0	0	1	4.249794892641148E+002	-4.7720715E-001	-4.7743341E-001	-5.059232843980972E-004	2.000000000000000E+000	-4.0358182E-006	2.4154468E-007
2	1	0	0	1	4.249814892640643E+002	-4.7220907E-001	-4.7245795E-001	-3.644240068909873E-004	2.000000000000000E+000	-4.0366722E-006	1.7217502E-007
2	1	0	0	1	4.249834892640138E+002	-4.6721101E-001	-4.6744195E-001	-2.131566360440550E-004	2.000000000000000E+000	-4.0372352E-006	9.9638356E-008
2	1	0	0	1	4.249854892639632E+002	-4.6221292E-001	-4.6245053E-001	-6.975036775516393E-005	2.000000000000000E+000	-4.0375035E-006	3.2256096E-008
2	1	0	0	1	4.249874892639127E+002	-4.5721480E-001	-4.5742333E-001	6.149348898946516E-005	2.000000000000000E+000	-4.0374980E-006	2.8128557E-008
2	1	0	0	1	4.249894892638622E+002	-4.5221671E-001	-4.5243570E-001	1.904489381685279E-004	2.000000000000000E+000	-4.0372311E-006	8.6165898E-008
2	1	0	0	1	4.249914892638117E+002	-4.4721863E-001	-4.4744328E-001	3.077717126510997E-004	2.000000000000000E+000	-4.0367227E-006	1.3771039E-007
2	1	0	0	1	4.249934892637611E+002	-4.4222051E-001	-4.4246158E-001	4.311545028296382E-004	2.000000000000000E+000	-4.0359714E-006	1.9076930E-007
2	1	0	0	1	4.249954892637106E+002	-4.3711135E-001	-4.3733385E-001	5.887573102414632E-004	2.000000000000000E+000	-4.0349428E-006	2.5748349E-007
2	1	0	0	1	4.249974892636601E+002	-4.3205774E-001	-4.3229780E-001	7.131995243854460E-004	2.000000000000000E+000	-4.0336204E-006	3.0831458E-007
2	1	0	0	1	4.249994892636096E+002	-4.2705965E-001	-4.2729318E-001	8.073416534746980E-004	2.000000000000000E+000	-4.0320906E-006	3.4497160E-007
2	1	0	0	1	4.250014892635591E+002	-4.2206156E-001	-4.2231533E-001	9.016745147063287E-004	2.000000000000000E+000	-4.0303712E-006	3.8079096E-007
2	1	0	0	1	4.250034892635085E+002	-4.1706344E-001	-4.1731063E-001	9.980202691319100E-004	2.000000000000000E+000	-4.0284622E-006	4.1648445E-007
2	1	0	0	1	4.250054892634580E+002	-4.1206536E-001	-4.1229799E-001	1.101506709422516E-003	2.000000000000000E+000	-4.0263540E-006	4.5414902E-007
2	1	0	0	1	4.250074892634075E+002	-4.0706727E-001	-4.0731841E-001	1.189207427437904E-003	2.000000000000000E+000	-4.0240548E-006	4.8438608E-007
2	1	0	0	1	4.250094892633570E+002	-4.0206912E-001	-4.0230966E-001	1.286294889748914E-003	2.000000000000000E+000	-4.0215664E-006	5.1748884E-007
2	1	0	0	1	4.250114892633064E+002	-3.9707106E-001	-3.9731824E-001	1.391900167845961E-003	2.000000000000000E+000	-4.0188784E-006	5.5302735E-007
2	1	0	0	1	4.250134892632559E+002	-3.9207298E-001	-3.9232829E-001	1.498946293445949E-003	2.000000000000000E+000	-4.0159766E-006	5.8807905E-007
2	1	0	0	1	4.250154892632054E+002	-3.8707483E-001	-3.8733229E-001	1.592304453323683E-003	2.000000000000000E+000	-4.0128748E-006	6.1675092E-007
2	1	0	0	1	4.250174892631549E+002	-3.8207680E-001	-3.8230759E-001	1.695494270986982E-003	2.000000000000000E+000	-4.0095765E-006	6.4820034E-007
2	1	0	0	1	4.250194892631043E+002	-3.7707868E-001	-3.7730113E-001	1.802116694862986E-003	2.000000000000000E+000	-4.0060695E-006	6.7994068E-007
2	1	0	0	1	4.250214892630538E+002	-3.7208056E-001	-3.7230504E-001	1.882655564713785E-003	2.000000000000000E+000	-4.0023738E-006	7.0092216E-007
2	1	0	0	1	4.250234892630033E+002	-3.6708251E-001	-3.6730832E-001	1.996694125460229E-003	2.000000000000000E+000	-3.9984857E-006	7.3340237E-007
2	1	0	0	1	4.250254892629528E+002	-3.6208442E-001	-3.6231968E-001	2.093039930110135E-003	2.000000000000000E+000	-3.9943848E-006	7.5834953E-007
2	1	0	0	1	4.250274892629022E+002	-3.5708633E-001	-3.5733739E-001	2.193813956561520E-003	2.000000000000000E+000	-3.9900901E-006	7.8393174E-007
2	1	0	0	1	4.250294892628517E+002	-3.5208821E-001	-3.5233727E-001	2.293105100433318E-003	2.000000000000000E+000	-3.9855922E-006	8.0794638E-007
2	1	0	0	1	4.250314892628012E+002	-3.4709013E-001	-3.4731048E-001	2.391357822842922E-003	2.000000000000000E+000	-3.9808992E-006	8.3054363E-007
2	1	0	0	1	4.250334892627507E+002	-3.4209204E-001	-3.4232986E-001	2.484483014743286E-003	2.000000000000000E+000	-3.9760121E-006	8.5051272E-007
2	1	0	0	1	4.250354892627001E+002	-3.3709392E-001	-3.3729988E-001	2.602187078537113E-003	2.000000000000000E+000	-3.9709148E-006	8.7771741E-007
2	1	0	0	1	4.250374892626496E+002	-3.3209583E-001	-3.3231294E-001	2.701308665766393E-003	2.000000000000000E+000	-3.9656034E-006	8.9767985E-007
2	1	0	0	1	4.250394892625991E+002	-3.2709777E-001	-3.2728401E-001	2.805155221823155E-003	2.000000000000000E+000	-3.9600859E-006	9.1808243E-007
2	1	0	0	1	4.250414892625486E+002	-3.2209966E-001	-3.2229686E-001	2.925147886041195E-003	2.000000000000000E+000	-3.9543452E-006	9.4276595E-007
2	1	0	0	1	4.250434892624980E+002	-3.1710157E-001	-3.1732410E-001	3.034651939136292E-003	2.000000000000000E+000	-3.9483734E-006	9.6296822E-007
2	1	0	0	1	4.250454892624475E+002	-3.1210348E-001	-3.1231549E-001	3.164857516771417E-003	2.000000000000000E+000	-3.9421625E-006	9.8843407E-007
2	1	0	0	1	4.250474892623970E+002	-3.0710536E-001	-3.0732030E-001	3.282265056289667E-003	2.000000000000000E+000	-3.9357074E-006	1.0087067E-006
2	1	0	0	1	4.250494892623465E+002	-3.0210727E-001	-3.0232191E-001	3.392341437524427E-003	2.000000000000000E+000	-3.9290226E-006	1.0255792E-006
2	1	0	0	1	4.250514892622959E+002	-2.9710919E-001	-2.9730994E-001	3.522695228993050E-003	2.000000000000000E+000	-3.9220927E-006	1.0473323E-006
2	1	0	0	1	4.250534892622454E+002	-2.9211107E-001	-2.9229331E-001	3.676356928836971E-003	2.000000000000000E+000	-3.9148772E-006	1.0745746E-006
2	1	0	0	1	4.250554892621949E+002	-2.8711301E-001	-2.8729680E-001	3.815610137129020E-003	2.000000000000000E+000	-3.9073725E-006	1.0962126E-006
2	1	0	0	1	4.250574892621444E+002	-2.8211489E-001	-2.8228822E-001	3.995439854103701E-003	2.000000000000000E+000	-3.8995436E-006	1.1278656E-006
2	1	0	0	1	4.250594892620938E+002	-2.7711678E-001	-2.7729979E-001	4.158785103704265E-003	2.000000000000000E+000	-3.8913781E-006	1.1532302E-006
2	1	0	0	1	4.250614892620433E+002	-2.7211872E-001	-2.7231306E-001	4.281977093796747E-003	2.000000000000000E+000	-3.8829276E-006	1.1660383E-006
2	1	0	0	1	4.250634892619928E+002	-2.6712060E-001	-2.6732501E-001	4.476575890445644E-003	2.000000000000000E+000	-3.8741523E-006	1.1967007E-006
2	1	0	0	1	4.250654892619423E+002	-2.6212251E-001	-2.6230371E-001	4.683908773232451E-003	2.000000000000000E+000	-3.8649669E-006	1.2286066E-006
2	1	0	0	1	4.250674892618918E+002	-2.5712442E-001	-2.5731739E-001	4.899717185657626E-003	2.000000000000000E+000	-3.8553617E-006	1.2607825E-006
2	1	0	0	1	4.250694892618412E+002	-2.5212631E-001	-2.5233722E-001	5.099210293135717E-003	2.000000000000000E+000	-3.8453436E-006	1.2867206E-006
2	1	0	0	1	4.250714892617907E+002	-2.4712822E-001	-2.4734306E-001	5.346781346714902E-003	2.000000000000000E+000	-3.8348726E-006	1.3224893E-006
2	1	0	0	1	4.250734892617402E+002	-2.4213013E-001	-2.4232239E-001	5.585113462681583E-003	2.000000000000000E+000	-3.8239127E-006	1.3533980E-006
2	1	0	0	1	4.250754892616897E+002	-2.3713203E-001	-2.3733757E-001	5.841689661388548E-003	2.000000000000000E+000	-3.8124585E-006	1.3864525E-006
2	1	0	0	1	4.250774892616391E+002	-2.3213392E-001	-2.3236120E-001	6.101528418488086E-003	2.000000000000000E+000	-3.8004905E-006	1.4177584E-006
2	1	0	0	1	4.250794892615886E+002	-2.2713585E-001	-2.2734775E-001	6.406584966902718E-003	2.000000000000000E+000	-3.7879513E-006	1.4565227E-006
2	1	0	0	1	4.250814892615381E+002	-2.2213776E-001	-2.2234191E-001	6.730181627669217E-003	2.000000000000000E+000	-3.7747830E-006	1.4964014E-006
2	1	0	0	1	4.250834892614876E+002	-2.1713968E-001	-2.1735093E-001	7.038776535308794E-003	2.000000000000000E+000	-3.7609798E-006	1.5298846E-006
2	1	0	0	1	4.250854892614370E+002	-2.1214157E-001	-2.1234936E-001	7.379239119978176E-003	2.000000000000000E+000	-3.7465290E-006	1.5669767E-006
2	1	0	0	1	4.250874892613865E+002	-2.0714347E-001	-2.0734903E-001	7.712094776757619E-003	2.000000000000000E+000	-3.7314001E-006	1.5990954E-006
2	1	0	0	1	4.250894892613360E+002	-2.0214538E-001	-2.0234089E-001	8.097138450668562E-003	2.000000000000000E+000	-3.7155571E-006	1.6383822E-006
2	1	0	0	1	4.250914892612855E+002	-1.9714728E-001	-1.9733739E-001	8.475063224876858E-003	2.000000000000000E+000	-3.6989456E-006	1.6724468E-006
2	1	0	0	1	4.250934892612349E+002	-1.9214919E-001	-1.9234769E-001	8.825739224044393E-003	2.000000000000000E+000	-3.6816057E-006	1.6976105E-006
2	1	0	0	1	4.250954892611844E+002	-1.8715110E-001	-1.8735692E-001	9.163172259731150E-003	2.000000000000000E+000	-3.6635906E-006	1.7167837E-006
2	1	0	0	1	4.250974892611339E+002	-1.8215299E-001	-1.8235704E-001	9.604916942104559E-003	2.000000000000000E+000	-3.6447866E-006	1.7515242E-006
2	1	0	0	1	4.250994892610834E+002	-1.7715490E-001	-1.7735884E-001	9.973603748221621E-003	2.000000000000000E+000	-3.6251786E-006	1.7689067E-006
2	1	0	0	1	4.251014892610328E+002	-1.7215681E-001	-1.7236997E-001	1.028940267254558E-002	2.000000000000000E+000	-3.6048773E-006	1.7735840E-006
2	1	0	0	1	4.251034892609823E+002	-1.6715872E-001	-1.6734868E-001	1.063565013545384E-002	2.000000000000000E+000	-3.5839216E-006	1.7798620E-006
2	1	0	0	1	4.251054892609318E+002	-1.6216063E-001	-1.6234285E-001	1.094106619792806E-002	2.000000000000000E+000	-3.5623139E-006	1.7762038E-006
2	1	0	0	1	4.251074892608813E+002	-1.5716253E-001	-1.5733810E-001	1.123540097655175E-002	2.000000000000000E+000	-3.5401063E-006	1.7677567E-006
2	1	0	0	1	4.251094892608307E+002	-1.5216443E-001	-1.5234268E-001	1.150492321721686E-002	2.000000000000000E+000	-3.5173432E-006	1.7526908E-006
2	1	0	0	1	4.251114892607802E+002	-1.4716634E-001	-1.4734977E-001	1.181455627940725E-002	2.000000000000000E+000	-3.4939901E-006	1.7408722E-006
2	1	0	0	1	4.251134892607297E+002	-1.4216824E-001	-1.4236875E-001	1.208094211930688E-002	2.000000000000000E+000	-3.4700709E-006	1.7199486E-006
2	1	0	0	1	4.251154892606792E+002	-1.3717015E-001	-1.3736463E-001	1.227293520544967E-002	2.000000000000000E+000	-3.4456959E-006	1.6858671E-006
2	1	0	0	1	4.251174892606286E+002	-1.3217206E-001	-1.3234925E-001	1.247134761514540E-002	2.000000000000000E+000	-3.4209281E-006	1.6505735E-006
2	1	0	0	1	4.251194892605781E+002	-1.2717396E-001	-1.2736633E-001	1.268476214459546E-002	2.000000000000000E+000	-3.3957513E-006	1.6156116E-006
2	1	0	0	1	4.251214892605276E+002	-1.2217586E-001	-1.2233508E-001	1.285594651098004E-002	2.000000000000000E+000	-3.3701913E-006	1.5727333E-006
2	1	0	0	1	4.251234892604771E+002	-1.1717778E-001	-1.1734218E-001	1.298322870085639E-002	2.000000000000000E+000	-3.3443337E-006	1.5234804E-006
2	1	0	0	1	4.251254892604265E+002	-1.1217968E-001	-1.1232746E-001	1.306794157709293E-002	2.000000000000000E+000	-3.3182712E-006	1.4678886E-006
2	1	0	0	1	4.251274892603760E+002	-1.0718159E-001	-1.0736085E-001	1.310945077481546E-002	2.000000000000000E+000	-3.2920780E-006	1.4074418E-006
2	1	0	0	1	4.251294892603255E+002	-1.0218349E-001	-1.0236541E-001	1.314627701039073E-002	2.000000000000000E+000	-3.2658222E-006	1.3457241E-006
2	1	0	0	1	4.251314892602750E+002	-9.7185396E-002	-9.7369343E-002	1.314087410375778E-002	2.000000000000000E+000	-3.2395274E-006	1.2795183E-006
2	1	0	0	1	4.251334892602245E+002	-9.2187300E-002	-9.2348687E-002	1.318049667032833E-002	2.000000000000000E+000	-3.2132000E-006	1.2172015E-006
2	1	0	0	1	4.251354892601739E+002	-8.7189205E-002	-8.7373607E-002	1.318375989831111E-002	2.000000000000000E+000	-3.1868381E-006	1.1519127E-006
2	1	0	0	1	4.251374892601234E+002	-8.2191110E-002	-8.2377948E-002	1.316596181863536E-002	2.000000000000000E+000	-3.1604941E-006	1.0845849E-006
2	1	0	0	1	4.251394892600729E+002	-7.7193022E-002	-7.7392898E-002	1.308345185215232E-002	2.000000000000000E+000	-3.1342493E-006	1.0125663E-006
2	1	0	0	1	4.251414892600224E+002	-7.2194926E-002	-7.2377965E-002	1.305946629508982E-002	2.000000000000000E+000	-3.1081104E-006	9.4521761E-007
2	1	0	0	1	4.251434892599718E+002	-6.7196824E-002	-6.7389518E-002	1.294655125780589E-002	2.000000000000000E+000	-3.0821097E-006	8.7246184E-007
2	1	0	0	1	4.251454892599213E+002	-6.2198728E-002	-6.2381580E-002	1.284306440538785E-002	2.000000000000000E+000	-3.0563363E-006	8.0117064E-007
2	1	0	0	1	4.251474892598708E+002	-5.7200637E-002	-5.7406489E-002	1.271845281331077E-002	2.000000000000000E+000	-3.0307829E-006	7.3012171E-007
2	1	0	0	1	4.251494892598203E+002	-5.2202541E-002	-5.2396007E-002	1.267211206464308E-002	2.000000000000000E+000	-3.0054055E-006	6.6396808E-007
2	1	0	0	1	4.251514892597697E+002	-4.7204453E-002	-4.7395274E-002	1.257345693799530E-002	2.000000000000000E+000	-2.9801761E-006	5.9592242E-007
2	1	0	0	1	4.251534892597192E+002	-4.2206354E-002	-4.2389452E-002	1.241159474092354E-002	2.000000000000000E+000	-2.9552057E-006	5.2612069E-007
2	1	0	0	1	4.251554892596687E+002	-3.7208267E-002	-3.7372604E-002	1.228855111569122E-002	2.000000000000000E+000	-2.9305140E-006	4.5925515E-007
2	1	0	0	1	4.251574892596182E+002	-3.2210171E-002	-3.2393493E-002	1.211327643694754E-002	2.000000000000000E+000	-2.9061323E-006	3.9239134E-007
2	1	0	0	1	4.251594892595676E+002	-2.7212076E-002	-2.7381098E-002	1.197478632760372E-002	2.000000000000000E+000	-2.8820639E-006	3.2788279E-007
2	1	0	0	1	4.251614892595171E+002	-2.2213981E-002	-2.2389481E-002	1.188280543748177E-002	2.000000000000000E+000	-2.8582119E-006	2.6604985E-007
2	1	0	0	1	4.251634892594666E+002	-1.7215885E-002	-1.7395953E-002	1.173478004440967E-002	2.000000000000000E+000	-2.8346058E-006	2.0413768E-007
2	1	0	0	1	4.251654892594161E+002	-1.2217791E-002	-1.2423408E-002	1.159005963967907E-002	2.000000000000000E+000	-2.8112986E-006	1.4398805E-007
2	1	0	0	1	4.251674892593655E+002	-7.2196960E-003	-7.3929969E-003	1.150562183546652E-002	2.000000000000000E+000	-2.7882068E-006	8.5061025E-008
2	1	0	0	1	4.251694892593150E+002	-2.2030901E-003	-2.3986215E-003	1.137204794819505E-002	2.000000000000000E+000	-2.7653300E-006	2.7277238E-008
2	1	0	0	1	4.251714892592645E+002	2.9430951E-003	2.7882198E-003	1.129153030443478E-002	2.000000000000000E+000	-2.7426718E-006	3.1483268E-008
2	1	0	0	1	4.251734892592140E+002	7.9411864E-003	7.7872570E-003	1.116899440522603E-002	2.000000000000000E+000	-2.7202238E-006	8.6975831E-008
2	1	0	0	1	4.251754892591634E+002	1.2939279E-002	1.2806007E-002	1.104826058771224E-002	2.000000000000000E+000	-2.6980174E-006	1.4148409E-007
2	1	0	0	1	4.251774892591129E+002	1.7937370E-002	1.7806102E-002	1.094740127923108E-002	2.000000000000000E+000	-2.6760397E-006	1.9493054E-007
2	1	0	0	1	4.251794892590624E+002	2.2935461E-002	2.2798145E-002	1.087466017896882E-002	2.000000000000000E+000	-2.6542261E-006	2.4792209E-007
2	1	0	0	1	4.251814892590119E+002	2.7933557E-002	2.7783828E-002	1.076731749728624E-002	2.000000000000000E+000	-2.6325986E-006	2.9915731E-007
2	1	0	0	1	4.251834892589613E+002	3.2931648E-002	3.2787737E-002	1.064287513509043E-002	2.000000000000000E+000	-2.6111986E-006	3.4895578E-007
2	1	0	0	1	4.251854892589108E+002	3.7929744E-002	3.7797801E-002	1.061651611315836E-002	2.000000000000000E+000	-2.5899462E-006	4.0128097E-007
2	1	0	0	1	4.251874892588603E+002	4.2927831E-002	4.2797260E-002	1.048762454148448E-002	2.000000000000000E+000	-2.5688460E-006	4.4884160E-007
2	1	0	0	1	4.251894892588098E+002	4.7925927E-002	4.7798634E-002	1.041755268771441E-002	2.000000000000000E+000	-2.5479460E-006	4.9794477E-007
2	1	0	0	1	4.251914892587592E+002	5.2924018E-002	5.2790672E-002	1.028785561943046E-002	2.000000000000000E+000	-2.5272536E-006	5.4310283E-007
2	1	0	0	1	4.251934892587087E+002	5.7922110E-002	5.7824470E-002	1.026168739230746E-002	2.000000000000000E+000	-2.5067120E-006	5.9337663E-007
2	1	0	0	1	4.251954892586582E+002	6.2920198E-002	6.2805705E-002	1.016601994847915E-002	2.000000000000000E+000	-2.4862986E-006	6.3848404E-007
2	1	0	0	1	4.251974892586077E+002	6.7918286E-002	6.7792445E-002	1.008868038055274E-002	2.000000000000000E+000	-2.4660574E-006	6.8393632E-007
2	1	0	0	1	4.251994892585572E+002	7.2916381E-002	7.2785765E-002	1.002803771431601E-002	2.000000000000000E+000	-2.4459482E-006	7.2989837E-007
2	1	0	0	1	4.252014892585066E+002	7.7914476E-002	7.7783100E-002	9.988605492253555E-003	2.000000000000000E+000	-2.4259355E-006	7.7694472E-007
2	1	0	0	1	4.252034892584561E+002	8.2912564E-002	8.2769208E-002	9.936332046789981E-003	2.000000000000000E+000	-2.4060164E-006	8.2242235E-007
2	1	0	0	1	4.252054892584056E+002	8.7910660E-002	8.7760396E-002	9.866833301809236E-003	2.000000000000000E+000	-2.3862260E-006	8.6591717E-007
2	1	0	0	1	4.252074892583551E+002	9.2908740E-002	9.2758164E-002	9.804241129434857E-003	2.000000000000000E+000	-2.3665616E-006	9.0942342E-007
2	1	0	0	1	4.252092892583096E+002	9.7407050E-002	9.7258240E-002	9.773354267183884E-003	2.000000000000000E+000	-2.3489408E-006	9.5053923E-007
2	1	0	0	1	4.252101892582868E+002	9.9572904E-002	9.9433050E-002	9.710970334708691E-003	2.000000000000000E+000	-2.3401565E-006	9.6559143E-007
2	1	0	1	1	4.252103892582818E+002	1.0023932E-001	1.0013890E-001	9.751779027283192E-003	2.000000000000000E+000	-2.3382063E-006	9.7653242E-007
2	0	0	0	1	4.252105892582767E+002	9.9572904E-002	9.9494100E-002	9.299056604504585E-003	2.000000000000000E+000	-2.3363464E-006	9.2520128E-007
2	0	0	1	1	4.252116892582490E+002	9.6907228E-002	9.6827947E-002	7.476516970402582E-003	2.000000000000000E+000	-2.3279556E-006	7.2393578E-007
2	0	0	1	1	4.252136892581984E+002	9.1909133E-002	9.1807917E-002	5.229945725608972E-003	2.000000000000000E+000	-2.3155164E-006	4.8015045E-007
2	0	0	1	1	4.252156892581479E+002	8.6911038E-002	8.6806759E-002	3.790628409256512E-003	2.000000000000000E+000	-2.3066648E-006	3.2905217E-007
2	0	0	1	1	4.252176892580974E+002	8.1912942E-002	8.1805393E-002	2.831090360763872E-003	2.000000000000000E+000	-2.3001489E-006	2.3159846E-007
2	0	0	1	1	4.252196892580469E+002	7.6914854E-002	7.6821819E-002	2.121220883054775E-003	2.000000000000000E+000	-2.2952765E-006	1.6295604E-007
2	0	0	1	1	4.252216892579963E+002	7.1916766E-002	7.1809649E-002	1.568191564754472E-003	2.000000000000000E+000	-2.2916445E-006	1.1261129E-007
2	0	0	1	1	4.252236892579458E+002	6.6918671E-002	6.6839226E-002	1.124772096255180E-003	2.000000000000000E+000	-2.2889994E-006	7.5178896E-008
2	0	0	1	1	4.252256892578953E+002	6.1920583E-002	6.1856724E-002	7.469745954343460E-004	2.000000000000000E+000	-2.2871666E-006	4.6205400E-008
2	0	0	1	1	4.252276892578448E+002	5.6922488E-002	5.6844972E-002	4.172122106069764E-004	2.000000000000000E+000	-2.2860381E-006	2.3716417E-008
2	0	0	1	1	4.252296892577942E+002	5.1924400E-002	5.1839575E-002	1.206316215116330E-004	2.000000000000000E+000	-2.2855313E-006	6.2534919E-009
2	0	0	1	1	4.252316892577437E+002	4.6926305E-002	4.6832692E-002	-1.379573414763196E-004	2.000000000000000E+000	-2.2855759E-006	6.4609136E-009
2	0	0	1	1	4.252336892576932E+002	4.1928213E-002	4.1802071E-002	-3.869053913155710E-004	2.000000000000000E+000	-2.2861252E-006	1.6173447E-008
2	0	0	1	1	4.252356892576427E+002	3.6930121E-002	3.6822330E-002	-5.982431846152571E-004	2.000000000000000E+000	-2.2871336E-006	2.2028708E-008
2	0	0	1	1	4.252376892575921E+002	3.1932030E-002	3.1805478E-002	-8.088393718708176E-004	2.000000000000000E+000	-2.2885622E-006	2.5725523E-008
2	0	0	1	1	4.252396892575416E+002	2.6933936E-002	2.6810685E-002	-1.001997182874623E-003	2.000000000000000E+000	-2.2903923E-006	2.6864232E-008
2	0	0	1	1	4.252416892574911E+002	2.1935845E-002	2.1826062E-002	-1.180492224433589E-003	2.000000000000000E+000	-2.2925919E-006	2.5765496E-008
2	0	0	1	1	4.252436892574406E+002	1.6937753E-002	1.6832326E-002	-1.353245049712216E-003	2.000000000000000E+000	-2.2951449E-006	2.2778261E-008
2	0	0	1	1	4.252456892573900E+002	1.1939661E-002	1.1834562E-002	-1.522798406742569E-003	2.000000000000000E+000	-2.2980371E-006	1.8021652E-008
2	0	0	1	1	4.252476892573395E+002	6.9415686E-003	6.8312841E-003	-1.681672526350055E-003	2.000000000000000E+000	-2.3012590E-006	1.1487983E-008
2	0	0	1	1	4.252496892572890E+002	1.9434764E-003	1.7945169E-003	-1.843258758678218E-003	2.000000000000000E+000	-2.3047992E-006	3.3077590E-009
2	0	0	1	1	4.252516892572385E+002	-3.2212201E-003	-3.3757908E-003	-2.040209517442933E-003	2.000000000000000E+000	-2.3087123E-006	6.8873205E-009
2	0	0	1	1	4.252536892571879E+002	-8.2193138E-003	-8.3669871E-003	-2.155710069170407E-003	2.000000000000000E+000	-2.3129205E-006	1.8036799E-008
2	0	0	1	1	4.252556892571374E+002	-1.3217409E-002	-1.3374293E-002	-2.293713159512351E-003	2.000000000000000E+000	-2.3173839E-006	3.0676791E-008
2	0	0	1	1	4.252576892570869E+002	-1.8215504E-002	-1.8356375E-002	-2.420104708309938E-003	2.000000000000000E+000	-2.3221089E-006	4.4424350E-008
2	0	0	1	1	4.252596892570364E+002	-2.3213599E-002	-2.3344815E-002	-2.548827053942663E-003	2.000000000000000E+000	-2.3270909E-006	5.9501897E-008
2	0	0	1	1	4.252616892569858E+002	-2.8211692E-002	-2.8342159E-002	-2.669031550693840E-003	2.000000000000000E+000	-2.3323207E-006	7.5646120E-008
2	0	0	1	1	4.252636892569353E+002	-3.3209790E-002	-3.3365577E-002	-2.810403862895321E-003	2.000000000000000E+000	-2.3378143E-006	9.3770751E-008
2	0	0	1	1	4.252656892568848E+002	-3.8207881E-002	-3.8358886E-002	-2.929018968643504E-003	2.000000000000000E+000	-2.3435657E-006	1.1235390E-007
2	0	0	1	1	4.252676892568343E+002	-4.3205980E-002	-4.3372344E-002	-3.065390595667038E-003	2.000000000000000E+000	-2.3495711E-006	1.3295318E-007
2	0	0	1	1	4.252696892567837E+002	-4.8204072E-002	-4.8363961E-002	-3.187459656500212E-003	2.000000000000000E+000	-2.3558384E-006	1.5415817E-007
2	0	0	1	1	4.252716892567332E+002	-5.3202163E-002	-5.3370211E-002	-3.329467357464935E-003	2.000000000000000E+000	-2.3623688E-006	1.7769437E-007
2	0	0	1	1	4.252736892566827E+002	-5.8200255E-002	-5.8376875E-002	-3.449290595552955E-003	2.000000000000000E+000	-2.3691616E-006	2.0135880E-007
2	0	0	1	1	4.252756892566322E+002	-6.3198350E-002	-6.3368075E-002	-3.565998969356244E-003	2.000000000000000E+000	-2.3761888E-006	2.2597050E-007
2	0	0	1	1	4.252776892565817E+002	-6.8196446E-002	-6.8342954E-002	-3.681266279373714E-003	2.000000000000000E+000	-2.3834496E-006	2.5158860E-007
2	0	0	1	1	4.252796892565311E+002	-7.3194541E-002	-7.3353864E-002	-3.827173018584690E-003	2.000000000000000E+000	-2.3909743E-006	2.8073794E-007
2	0	0	1	1	4.252816892564806E+002	-7.8192644E-002	-7.8357771E-002	-3.943944718129297E-003	2.000000000000000E+000	-2.3987584E-006	3.0903871E-007
2	0	0	1	1	4.252836892564301E+002	-8.3190732E-002	-8.3340712E-002	-4.070018358005544E-003	2.000000000000000E+000	-2.4067820E-006	3.3919824E-007
2	0	0	1	1	4.252856892563796E+002	-8.8188820E-002	-8.8332325E-002	-4.205288336935245E-003	2.000000000000000E+000	-2.4150686E-006	3.7146290E-007
2	0	0	1	1	4.252876892563290E+002	-9.3186915E-002	-9.3325004E-002	-4.334943021300802E-003	2.000000000000000E+000	-2.4236224E-006	4.0455856E-007
2	0	0	1	1	4.252896892562785E+002	-9.8185018E-002	-9.8327428E-002	-4.485256731742215E-003	2.000000000000000E+000	-2.4324581E-006	4.4102376E-007
2	0	0	1	1	4.252916892562280E+002	-1.0318311E-001	-1.0333347E-001	-4.615801490015448E-003	2.000000000000000E+000	-2.4415715E-006	4.7696676E-007
2	0	0	1	1	4.252936892561775E+002	-1.0818120E-001	-1.0832699E-001	-4.761305746847522E-003	2.000000000000000E+000	-2.4509627E-006	5.1577791E-007
2	0	0	1	1	4.252956892561269E+002	-1.1317930E-001	-1.1329783E-001	-4.899499371782044E-003	2.000000000000000E+000	-2.4606384E-006	5.5510264E-007
2	0	0	1	1	4.252976892560764E+002	-1.1817739E-001	-1.1831892E-001	-5.092784060858932E-003	2.000000000000000E+000	-2.4706469E-006	6.0257270E-007
2	0	0	1	1	4.252996892560259E+002	-1.2317548E-001	-1.2331394E-001	-5.260048991860659E-003	2.000000000000000E+000	-2.4810192E-006	6.4863735E-007
2	0	0	1	1	4.253016892559754E+002	-1.2817357E-001	-1.2832272E-001	-5.432971540863543E-003	2.000000000000000E+000	-2.4917294E-006	6.9717368E-007
2	0	0	1	1	4.253036892559248E+002	-1.3317168E-001	-1.3332304E-001	-5.616043482000871E-003	2.000000000000000E+000	-2.5027998E-006	7.4874799E-007
2	0	0	1	1	4.253056892558743E+002	-1.3816978E-001	-1.3832760E-001	-5.818354684884591E-003	2.000000000000000E+000	-2.5142538E-006	8.0483903E-007
2	0	0	1	1	4.253076892558238E+002	-1.4316785E-001	-1.4332876E-001	-6.030984904605741E-003	2.000000000000000E+000	-2.5261259E-006	8.6441355E-007
2	0	0	1	1	4.253096892557733E+002	-1.4816596E-001	-1.4831020E-001	-6.227660059064680E-003	2.000000000000000E+000	-2.5384027E-006	9.2362552E-007
2	0	0	1	1	4.253116892557227E+002	-1.5316406E-001	-1.5331262E-001	-6.452219474744579E-003	2.000000000000000E+000	-2.5511038E-006	9.8920668E-007
2	0	0	1	1	4.253136892556722E+002	-1.5816215E-001	-1.5830915E-001	-6.691866039950083E-003	2.000000000000000E+000	-2.5642723E-006	1.0593836E-006
2	0	0	1	1	4.253156892556217E+002	-1.6316025E-001	-1.6331305E-001	-6.967638984456744E-003	2.000000000000000E+000	-2.5779570E-006	1.1379063E-006
2	0	0	1	1	4.253176892555712E+002	-1.6815834E-001	-1.6833432E-001	-7.221375948878013E-003	2.000000000000000E+000	-2.5921706E-006	1.2156054E-006
2	0	0	1	1	4.253196892555206E+002	-1.7315643E-001	-1.7333783E-001	-7.525626535728719E-003	2.000000000000000E+000	-2.6069431E-006	1.3044757E-006
2	0	0	1	1	4.253216892554701E+002	-1.7815453E-001	-1.7832224E-001	-7.810065931355172E-003	2.000000000000000E+000	-2.6223101E-006	1.3927084E-006
2	0	0	1	1	4.253236892554196E+002	-1.8315262E-001	-1.8331979E-001	-8.129149830589696E-003	2.000000000000000E+000	-2.6382786E-006	1.4902340E-006
2	0	0	1	1	4.253256892553691E+002	-1.8815072E-001	-1.8833241E-001	-8.463510392781828E-003	2.000000000000000E+000	-2.6549060E-006	1.5939532E-006
2	0	0	1	1	4.253276892553185E+002	-1.9314882E-001	-1.9331913E-001	-8.803802904569419E-003	2.000000000000000E+000	-2.6722087E-006	1.7019435E-006
2	0	0	1	1	4.253296892552680E+002	-1.9814689E-001	-1.9829211E-001	-9.120958161777992E-003	2.000000000000000E+000	-2.6901678E-006	1.8086140E-006
2	0	0	1	1	4.253316892552175E+002	-2.0314500E-001	-2.0330217E-001	-9.491254885991396E-003	2.000000000000000E+000	-2.7088174E-006	1.9295928E-006
2	0	0	1	1	4.253336892551670E+002	-2.0814310E-001	-2.0828934E-001	-9.853351540085820E-003	2.000000000000000E+000	-2.7282006E-006	2.0523480E-006
2	0	0	1	1	4.253356892551164E+002	-2.1314119E-001	-2.1332847E-001	-1.025651191856825E-002	2.000000000000000E+000	-2.7483438E-006	2.1880060E-006
2	0	0	1	1	4.253376892550659E+002	-2.1813929E-001	-2.1831985E-001	-1.064746842409171E-002	2.000000000000000E+000	-2.7692890E-006	2.3245536E-006
2	0	0	1	1	4.253396892550154E+002	-2.2313738E-001	-2.2331423E-001	-1.106168896573461E-002	2.000000000000000E+000	-2.7910341E-006	2.4702324E-006
2	0	0	1	1	4.253416892549649E+002	-2.2813547E-001	-2.2830966E-001	-1.141848843508342E-002	2.000000000000000E+000	-2.8135503E-006	2.6069513E-006
2	0	0	1	1	4.253436892549144E+002	-2.3313355E-001	-2.3330298E-001	-1.183328194100697E-002	2.000000000000000E+000	-2.8368449E-006	2.7607400E-006
2	0	0	1	1	4.253456892548638E+002	-2.3813164E-001	-2.3830517E-001	-1.226189045620335E-002	2.000000000000000E+000	-2.8609797E-006	2.9220719E-006
2	0	0	1	1	4.253476892548133E+002	-2.4312975E-001	-2.4330571E-001	-1.263900985334962E-002	2.000000000000000E+000	-2.8859154E-006	3.0751432E-006
2	0	0	1	1	4.253496892547628E+002	-2.4812785E-001	-2.4829820E-001	-1.301909550824754E-002	2.000000000000000E+000	-2.9116104E-006	3.2326179E-006
2	0	0	1	1	4.253516892547123E+002	-2.5312594E-001	-2.5329745E-001	-1.338826978786126E-002	2.000000000000000E+000	-2.9380569E-006	3.3912145E-006
2	0	0	1	1	4.253536892546617E+002	-2.5812405E-001	-2.5828502E-001	-1.374828941920389E-002	2.000000000000000E+000	-2.9652260E-006	3.5509772E-006
2	0	0	1	1	4.253556892546112E+002	-2.6312214E-001	-2.6328132E-001	-1.413458444969562E-002	2.000000000000000E+000	-2.9931468E-006	3.7213720E-006
2	0	0	1	1	4.253576892545607E+002	-2.6812023E-001	-2.6828268E-001	-1.451087695871442E-002	2.000000000000000E+000	-3.0218312E-006	3.8930170E-006
2	0	0	1	1	4.253596892545102E+002	-2.7311832E-001	-2.7326667E-001	-1.482464215001122E-002	2.000000000000000E+000	-3.0512001E-006	4.0510809E-006
2	0	0	1	1	4.253616892544596E+002	-2.7811641E-001	-2.7825108E-001	-1.508001007096024E-002	2.000000000000000E+000	-3.0811332E-006	4.1960293E-006
2	0	0	1	1	4.253636892544091E+002	-2.8311449E-001	-2.8324357E-001	-1.543644911705792E-002	2.000000000000000E+000	-3.1116763E-006	4.3722748E-006
2	0	0	1	1	4.253656892543586E+002	-2.8811261E-001	-2.8825024E-001	-1.570073745117245E-002	2.000000000000000E+000	-3.1428453E-006	4.5257411E-006
2	0	0	1	1	4.253676892543081E+002	-2.9311070E-001	-2.9326025E-001	-1.596765409926265E-002	2.000000000000000E+000	-3.1745401E-006	4.6826781E-006
2	0	0	1	1	4.253696892542575E+002	-2.9810879E-001	-2.9828349E-001	-1.627099316323838E-002	2.000000000000000E+000	-3.2068049E-006	4.8533684E-006
2	0	0	1	1	4.253716892542070E+002	-3.0310690E-001	-3.0326492E-001	-1.650299122734897E-002	2.000000000000000E+000	-3.2396022E-006	5.0047784E-006
2	0	0	1	1	4.253736892541565E+002	-3.0810499E-001	-3.0829874E-001	-1.668080862368189E-002	2.000000000000000E+000	-3.2728117E-006	5.1426723E-006
2	0	0	1	1	4.253756892541060E+002	-3.1310308E-001	-3.1329203E-001	-1.692047668156083E-002	2.000000000000000E+000	-3.3064287E-006	5.3010504E-006
2	0	0	1	1	4.253776892540554E+002	-3.1810120E-001	-3.1829154E-001	-1.709013566930179E-002	2.000000000000000E+000	-3.3404672E-006	5.4396455E-006
2	0	0	1	1	4.253796892540049E+002	-3.2309929E-001	-3.2327637E-001	-1.726098169011592E-002	2.000000000000000E+000	-3.3748327E-006	5.5800674E-006
2	0	0	1	1	4.253816892539544E+002	-3.2809734E-001	-3.2825908E-001	-1.736124654396709E-002	2.000000000000000E+000	-3.4094646E-006	5.6989870E-006
2	0	0	1	1	4.253836892539039E+002	-3.3309549E-001	-3.3327678E-001	-1.755972299866299E-002	2.000000000000000E+000	-3.4444056E-006	5.8522478E-006
2	0	0	1	1	4.253856892538533E+002	-3.3809355E-001	-3.3826840E-001	-1.764685092671747E-002	2.000000000000000E+000	-3.4796144E-006	5.9693721E-006
2	0	0	1	1	4.253876892538028E+002	-3.4309164E-001	-3.4329200E-001	-1.768922919755928E-002	2.000000000000000E+000	-3.5149606E-006	6.0725706E-006
2	0	0	1	1	4.253896892537523E+002	-3.4808978E-001	-3.4829465E-001	-1.775669508909532E-002	2.000000000000000E+000	-3.5504170E-006	6.1845617E-006
2	0	0	1	1	4.253916892537018E+002	-3.5308784E-001	-3.5329732E-001	-1.779222753955567E-002	2.000000000000000E+000	-3.5859769E-006	6.2859463E-006
2	0	0	1	1	4.253936892536512E+002	-3.5808590E-001	-3.5828680E-001	-1.777290397634110E-002	2.000000000000000E+000	-3.6215361E-006	6.3677967E-006
2	0	0	1	1	4.253956892536007E+002	-3.6308405E-001	-3.6327162E-001	-1.776091088666149E-002	2.000000000000000E+000	-3.6570752E-006	6.4520350E-006
2	0	0	1	1	4.253976892535502E+002	-3.6808214E-001	-3.6827192E-001	-1.773192470399310E-002	2.000000000000000E+000	-3.6925746E-006	6.5301697E-006
2	0	0	1	1	4.253996892534997E+002	-3.7308019E-001	-3.7325868E-001	-1.773338740854849E-002	2.000000000000000E+000	-3.7280354E-006	6.6191410E-006
2	0	0	1	1	4.254016892534491E+002	-3.7807828E-001	-3.7826112E-001	-1.773177677144608E-002	2.000000000000000E+000	-3.7634952E-006	6.7072419E-006
2	0	0	1	1	4.254036892533986E+002	-3.8307640E-001	-3.8328856E-001	-1.763254861665092E-002	2.000000000000000E+000	-3.7988514E-006	6.7583542E-006
2	0	0	1	1	4.254056892533481E+002	-3.8807446E-001	-3.8827550E-001	-1.754349272454821E-002	2.000000000000000E+000	-3.8340195E-006	6.8117083E-006
2	0	0	1	1	4.254076892532976E+002	-3.9307258E-001	-3.9330170E-001	-1.744924406537191E-002	2.000000000000000E+000	-3.8689946E-006	6.8628174E-006
2	0	0	1	1	4.254096892532471E+002	-3.9807069E-001	-3.9828566E-001	-1.740606042888726E-002	2.000000000000000E+000	-3.9038523E-006	6.9325843E-006
2	0	0	1	1	4.254116892531965E+002	-4.0306875E-001	-4.0327772E-001	-1.731641137707313E-002	2.000000000000000E+000	-3.9385741E-006	6.9833231E-006
2	0	0	1	1	4.254136892531460E+002	-4.0806687E-001	-4.0826130E-001	-1.721188554903264E-002	2.000000000000000E+000	-3.9730839E-006	7.0269466E-006
2	0	0	1	1	4.254156892530955E+002	-4.1306499E-001	-4.1326961E-001	-1.718470133427114E-002	2.000000000000000E+000	-4.0074788E-006	7.1019149E-006
2	0	0	1	1	4.254176892530450E+002	-4.1806307E-001	-4.1825259E-001	-1.705873319628565E-002	2.000000000000000E+000	-4.0417185E-006	7.1348595E-006
2	0	0	1	1	4.254196892529944E+002	-4.2306116E-001	-4.2326328E-001	-1.694005404695215E-002	2.000000000000000E+000	-4.0756995E-006	7.1701029E-006
2	0	0	1	1	4.254216892529439E+002	-4.2805928E-001	-4.2824832E-001	-1.688566253202825E-002	2.000000000000000E+000	-4.1095122E-006	7.2312564E-006
2	0	0	1	1	4.254236892528934E+002	-4.3305737E-001	-4.3322507E-001	-1.683158785090196E-002	2.000000000000000E+000	-4.1432299E-006	7.2918656E-006
2	0	0	1	1	4.254256892528429E+002	-4.3814799E-001	-4.3834186E-001	-1.677819163220794E-002	2.000000000000000E+000	-4.1768385E-006	7.3545839E-006
2	0	0	1	1	4.254276892527923E+002	-4.4322014E-001	-4.4340208E-001	-1.670945648503319E-002	2.000000000000000E+000	-4.2103179E-006	7.4090076E-006
2	0	0	1	1	4.254296892527418E+002	-4.4821823E-001	-4.4838184E-001	-1.660478277295219E-002	2.000000000000000E+000	-4.2436186E-006	7.4452832E-006
2	0	0	1	1	4.254316892526913E+002	-4.5321634E-001	-4.5337468E-001	-1.652600242616447E-002	2.000000000000000E+000	-4.2767388E-006	7.4924710E-006
2	0	0	1	1	4.254336892526408E+002	-4.5821443E-001	-4.5839685E-001	-1.647474666222276E-002	2.000000000000000E+000	-4.3097357E-006	7.5519720E-006
2	0	0	1	1	4.254356892525902E+002	-4.6321249E-001	-4.6338910E-001	-1.641870306169339E-002	2.000000000000000E+000	-4.3426267E-006	7.6082479E-006
2	0	0	1	1	4.254376892525397E+002	-4.6821058E-001	-4.6840784E-001	-1.640048021828178E-002	2.000000000000000E+000	-4.3754421E-006	7.6821134E-006
2	0	0	1	1	4.254396892524892E+002	-4.7320873E-001	-4.7339970E-001	-1.637056075621025E-002	2.000000000000000E+000	-4.4082049E-006	7.7498189E-006
2	0	0	1	1	4.254416892524387E+002	-4.7820678E-001	-4.7840956E-001	-1.631595781893538E-002	2.000000000000000E+000	-4.4408866E-006	7.8057101E-006
2	0	0	1	1	4.254436892523881E+002	-4.8320487E-001	-4.8339671E-001	-1.627974603110886E-002	2.000000000000000E+000	-4.4734816E-006	7.8695757E-006
2	0	0	1	1	4.254456892523376E+002	-4.8820296E-001	-4.8840150E-001	-1.621550156010516E-002	2.000000000000000E+000	-4.5059701E-006	7.9196752E-006
2	0	0	1	1	4.254476892522871E+002	-4.9320105E-001	-4.9338481E-001	-1.620287267683627E-002	2.000000000000000E+000	-4.5383795E-006	7.9942511E-006
2	0	0	1	1	4.254496892522366E+002	-4.9819914E-001	-4.9837920E-001	-1.614570425772397E-002	2.000000000000000E+000	-4.5707238E-006	8.0466834E-006
2	0	0	1	1	4.254516892521860E+002	-5.0319725E-001	-5.0340563E-001	-1.611525559746948E-002	2.000000000000000E+000	-4.6029800E-006	8.1125108E-006
2	0	0	1	1	4.254536892521355E+002	-5.0819534E-001	-5.0840062E-001	-1.612805536165574E-002	2.000000000000000E+000	-4.6352147E-006	8.1995131E-006
2	0	0	1	1	4.254556892520850E+002	-5.1319343E-001	-5.1340240E-001	-1.609430090805589E-002	2.000000000000000E+000	-4.6674259E-006	8.2628530E-006
2	0	0	1	1	4.254576892520345E+002	-5.1819158E-001	-5.1839089E-001	-1.611211924702929E-002	2.000000000000000E+000	-4.6996420E-006	8.3523755E-006
2	0	0	1	1	4.254596892519839E+002	-5.2318966E-001	-5.2337933E-001	-1.604384945070102E-002	2.000000000000000E+000	-4.7317917E-006	8.3970190E-006
2	0	0	1	1	4.254616892519334E+002	-5.2818775E-001	-5.2838326E-001	-1.605416785039576E-002	2.000000000000000E+000	-4.7638978E-006	8.4827534E-006
2	0	0	1	1	4.254636892518829E+002	-5.3318584E-001	-5.3337020E-001	-1.604238727425882E-002	2.000000000000000E+000	-4.7959902E-006	8.5565316E-006
2	0	0	1	1	4.254656892518324E+002	-5.3818393E-001	-5.3836918E-001	-1.604812991273416E-002	2.000000000000000E+000	-4.8280840E-006	8.6398186E-006
2	0	0	1	1	4.254676892517818E+002	-5.4318202E-001	-5.4337460E-001	-1.609896298254571E-002	2.000000000000000E+000	-4.8602265E-006	8.7477674E-006
2	0	0	1	1	4.254696892517313E+002	-5.4818010E-001	-5.4837024E-001	-1.610000072853125E-002	2.000000000000000E+000	-4.8924280E-006	8.8287616E-006
2	0	0	1	1	4.254716892516808E+002	-5.5317819E-001	-5.5337137E-001	-1.617197925831237E-002	2.000000000000000E+000	-4.9247005E-006	8.9491105E-006
2	0	0	1	1	4.254736892516303E+002	-5.5817628E-001	-5.5839139E-001	-1.618649275951614E-002	2.000000000000000E+000	-4.9570644E-006	9.0383983E-006
2	0	0	1	1	4.254756892515798E+002	-5.6317443E-001	-5.6339115E-001	-1.623749378854372E-002	2.000000000000000E+000	-4.9894866E-006	9.1480606E-006
2	0	0	1	1	4.254776892515292E+002	-5.6817245E-001	-5.6839180E-001	-1.627129128994254E-002	2.000000000000000E+000	-5.0220028E-006	9.2484688E-006
2	0	0	1	1	4.254796892514787E+002	-5.7317054E-001	-5.7338285E-001	-1.628720374113378E-002	2.000000000000000E+000	-5.0545646E-006	9.3388035E-006
2	0	0	1	1	4.254816892514282E+002	-5.7816869E-001	-5.7838213E-001	-1.628057247176506E-002	2.000000000000000E+000	-5.0871267E-006	9.4163925E-006
2	0	0	1	1	4.254836892513777E+002	-5.8316678E-001	-5.8336157E-001	-1.638060413885489E-002	2.000000000000000E+000	-5.1197962E-006	9.5558153E-006
2	0	0	1	1	4.254856892513271E+002	-5.8816487E-001	-5.8836484E-001	-1.648260654231604E-002	2.000000000000000E+000	-5.1526708E-006	9.6977865E-006
2	0	0	1	1	4.254876892512766E+002	-5.9316289E-001	-5.9335399E-001	-1.649646462222635E-002	2.000000000000000E+000	-5.1856523E-006	9.7882430E-006
2	0	0	1	1	4.254894892512311E+002	-5.9766126E-001	-5.9786969E-001	-1.656850647694749E-002	2.000000000000000E+000	-5.2154087E-006	9.9058079E-006
2	0	0	1	1	4.254903892512084E+002	-5.9982693E-001	-6.0002363E-001	-1.662353426218033E-002	2.000000000000000E+000	-5.2303390E-006	9.9745130E-006
2	0	0	0	1	4.254905892512033E+002	-6.0049337E-001	-6.0066837E-001	-1.666625030338764E-002	2.000000000000000E+000	-5.2336723E-006	1.0010889E-005