EC-Lab ASCII FILE
Nb header lines : 53                          

Cyclic Voltammetry

Run on channel : 1 (SN 0696)
User : 
Electrode connection : standard
Ewe ctrl range : min = -10.00 V, max = 10.00 V
Ewe,I filtering : 50 kHz
Channel : Grounded
Acquisition started on : 05/17/2017 12:39:23
Saved on :
	File : 100 uM MB 10mM PB  second ito_06_CV_C01.mpr
	Directory : \\userfs\st659\w2k\EC-Lab\Data\ITO Characterisation 17-5-17\
	Host : 144.32.136.43
Device : SP-300 (SN 0182)
Address : USB
EC-Lab for windows v10.44 (software)
Internet server v10.44 (firmware)
Command interpretor v10.44 (firmware)
Electrode material : 
Initial state : 
Electrolyte : 
Comments : 
Cable : standard
Electrode surface area : 0.001 cm²
Characteristic mass : 0.001 g
Equivalent Weight : 0.000 g/eq.
Density : 0.000 g/cm3
Ei (V)              0.000               
vs.                 Eoc                 
dE/dt               1000.000            
dE/dt unit          mV/s                
E1 (V)              0.100               
vs.                 Ref                 
Step percent        50                  
N                   10                  
E range min (V)     -10.000             
E range max (V)     10.000              
I Range             Auto                
I Range min         Unset               
I Range max         Unset               
I Range init        Unset               
Bandwidth           8                   
E2 (V)              -0.600              
vs.                 Ref                 
nc cycles           2                   
Reverse Scan        1                   
Ef (V)              0.000               
vs.                 Eoc                 

mode	ox/red	error	control changes	counter inc.	time/s	control/V	Ewe/V	<I>/mA	cycle number	(Q-Qo)/C	P/W
2	1	0	1	1	4.205769893753313E+002	-6.0016018E-001	-6.0043186E-001	-1.109362021088600E-002	2.000000000000000E+000	-5.4855695E-006	6.6609632E-006
2	1	0	1	1	4.205788893752833E+002	-5.9826100E-001	-5.9847707E-001	-9.873930489023533E-003	2.000000000000000E+000	-5.5045894E-006	5.9093209E-006
2	1	0	1	1	4.205820893752025E+002	-5.9506226E-001	-5.9528357E-001	-8.467684724079549E-003	2.000000000000000E+000	-5.5336814E-006	5.0406734E-006
2	1	0	0	1	4.205854893751166E+002	-5.9166354E-001	-5.9188020E-001	-7.518253772165419E-003	2.000000000000000E+000	-5.5606392E-006	4.4499056E-006
2	1	0	1	1	4.205888893750307E+002	-5.8826488E-001	-5.8848268E-001	-6.868488232915602E-003	2.000000000000000E+000	-5.5849373E-006	4.0419864E-006
2	1	0	1	1	4.205920893749499E+002	-5.8506608E-001	-5.8528787E-001	-6.409143295847269E-003	2.000000000000000E+000	-5.6060503E-006	3.7511938E-006
2	1	0	0	1	4.205954893748640E+002	-5.8166736E-001	-5.8187395E-001	-6.015487727866753E-003	2.000000000000000E+000	-5.6270337E-006	3.5002556E-006
2	1	0	1	1	4.205988893747781E+002	-5.7826865E-001	-5.7850349E-001	-5.700133981008562E-003	2.000000000000000E+000	-5.6468302E-006	3.2975474E-006
2	1	0	1	1	4.206020893746972E+002	-5.7506984E-001	-5.7529217E-001	-5.428755371879868E-003	2.000000000000000E+000	-5.6645217E-006	3.1231205E-006
2	1	0	0	1	4.206054893746114E+002	-5.7167119E-001	-5.7190543E-001	-5.174730182140291E-003	2.000000000000000E+000	-5.6824301E-006	2.9594564E-006
2	1	0	1	1	4.206088893745255E+002	-5.6827247E-001	-5.6850195E-001	-4.968405560127079E-003	2.000000000000000E+000	-5.6995623E-006	2.8245483E-006
2	1	0	1	1	4.206120893744446E+002	-5.6507373E-001	-5.6530559E-001	-4.776905254705827E-003	2.000000000000000E+000	-5.7150514E-006	2.7004112E-006
2	1	0	0	1	4.206154893743587E+002	-5.6167501E-001	-5.6188160E-001	-4.593222735275057E-003	2.000000000000000E+000	-5.7308685E-006	2.5808474E-006
2	1	0	1	1	4.206188893742728E+002	-5.5827630E-001	-5.5851138E-001	-4.427568114351743E-003	2.000000000000000E+000	-5.7460993E-006	2.4728472E-006
2	1	0	1	1	4.206220893741920E+002	-5.5507749E-001	-5.5530167E-001	-4.275109981366147E-003	2.000000000000000E+000	-5.7599254E-006	2.3739758E-006
2	1	0	0	1	4.206254893741061E+002	-5.5167884E-001	-5.5187327E-001	-4.130890146431440E-003	2.000000000000000E+000	-5.7741086E-006	2.2797278E-006
2	1	0	1	1	4.206288893740202E+002	-5.4828006E-001	-5.4846990E-001	-3.992009765048959E-003	2.000000000000000E+000	-5.7878165E-006	2.1894973E-006
2	1	0	1	1	4.206320893739394E+002	-5.4508132E-001	-5.4528904E-001	-3.872339169750664E-003	2.000000000000000E+000	-5.8003006E-006	2.1115441E-006
2	1	0	0	1	4.206354893738535E+002	-5.4168266E-001	-5.4189128E-001	-3.749922545860797E-003	2.000000000000000E+000	-5.8131495E-006	2.0320504E-006
2	1	0	1	1	4.206388893737676E+002	-5.3828394E-001	-5.3849757E-001	-3.635629901994744E-003	2.000000000000000E+000	-5.8256051E-006	1.9577778E-006
2	1	0	1	1	4.206420893736868E+002	-5.3508514E-001	-5.3528374E-001	-3.536160925735485E-003	2.000000000000000E+000	-5.8369860E-006	1.8928495E-006
2	1	0	0	1	4.206454893736009E+002	-5.3168643E-001	-5.3188574E-001	-3.439463536445447E-003	2.000000000000000E+000	-5.8487362E-006	1.8294016E-006
2	1	0	1	1	4.206488893735150E+002	-5.2828771E-001	-5.2849233E-001	-3.333001965226373E-003	2.000000000000000E+000	-5.8601554E-006	1.7614660E-006
2	1	0	1	1	4.206520893734341E+002	-5.2508897E-001	-5.2530313E-001	-3.249602581308859E-003	2.000000000000000E+000	-5.8705955E-006	1.7070264E-006
2	1	0	0	1	4.206554893733482E+002	-5.2169025E-001	-5.2192003E-001	-3.157494606117930E-003	2.000000000000000E+000	-5.8813794E-006	1.6479597E-006
2	1	0	1	1	4.206588893732624E+002	-5.1829153E-001	-5.1847953E-001	-3.062907442472361E-003	2.000000000000000E+000	-5.8918572E-006	1.5880548E-006
2	1	0	1	1	4.206620893731815E+002	-5.1509279E-001	-5.1530808E-001	-2.991306062722285E-003	2.000000000000000E+000	-5.9014546E-006	1.5414441E-006
2	1	0	0	1	4.206654893730956E+002	-5.1169407E-001	-5.1189828E-001	-2.911097752894415E-003	2.000000000000000E+000	-5.9113872E-006	1.4901859E-006
2	1	0	1	1	4.206688893730097E+002	-5.0829536E-001	-5.0851619E-001	-2.832656594515953E-003	2.000000000000000E+000	-5.9210611E-006	1.4404518E-006
2	1	0	1	1	4.206720893729289E+002	-5.0509661E-001	-5.0532103E-001	-2.764309554671253E-003	2.000000000000000E+000	-5.9299264E-006	1.3968637E-006
2	1	0	0	1	4.206754893728430E+002	-5.0169784E-001	-5.0191957E-001	-2.690305320447811E-003	2.000000000000000E+000	-5.9390945E-006	1.3503169E-006
2	1	0	1	1	4.206788893727571E+002	-4.9829912E-001	-4.9851647E-001	-2.618678583409445E-003	2.000000000000000E+000	-5.9480253E-006	1.3054544E-006
2	1	0	1	1	4.206820893726763E+002	-4.9510038E-001	-4.9527678E-001	-2.549340155019314E-003	2.000000000000000E+000	-5.9562026E-006	1.2626290E-006
2	1	0	0	1	4.206854893725904E+002	-4.9170169E-001	-4.9191612E-001	-2.487426096164806E-003	2.000000000000000E+000	-5.9646663E-006	1.2236050E-006
2	1	0	1	1	4.206888893725045E+002	-4.8830301E-001	-4.8851705E-001	-2.424240969655024E-003	2.000000000000000E+000	-5.9729268E-006	1.1842831E-006
2	1	0	1	1	4.206920893724237E+002	-4.8510423E-001	-4.8531246E-001	-2.361780511182582E-003	2.000000000000000E+000	-5.9804979E-006	1.1462015E-006
2	1	0	0	1	4.206954893723378E+002	-4.8170549E-001	-4.8192257E-001	-2.303769517175168E-003	2.000000000000000E+000	-5.9883282E-006	1.1102385E-006
2	1	0	1	1	4.206988893722519E+002	-4.7830677E-001	-4.7853962E-001	-2.241880922717123E-003	2.000000000000000E+000	-5.9959639E-006	1.0728288E-006
2	1	0	1	1	4.207020893721710E+002	-4.7510800E-001	-4.7530606E-001	-2.184607512102355E-003	2.000000000000000E+000	-6.0029511E-006	1.0383573E-006
2	1	0	0	1	4.207054893720851E+002	-4.7170925E-001	-4.7192878E-001	-2.127677184186418E-003	2.000000000000000E+000	-6.0101825E-006	1.0041121E-006
2	1	0	1	1	4.207088893719992E+002	-4.6831053E-001	-4.6853250E-001	-2.069221305146127E-003	2.000000000000000E+000	-6.0172265E-006	9.6949748E-007
2	1	0	1	1	4.207120893719184E+002	-4.6511179E-001	-4.6530369E-001	-2.012163888790984E-003	2.000000000000000E+000	-6.0236639E-006	9.3626727E-007
2	1	0	0	1	4.207154893718325E+002	-4.6171311E-001	-4.6190876E-001	-1.958386486679349E-003	2.000000000000000E+000	-6.0303119E-006	9.0459588E-007
2	1	0	1	1	4.207188893717466E+002	-4.5831442E-001	-4.5852751E-001	-1.909656393763726E-003	2.000000000000000E+000	-6.0367975E-006	8.7563001E-007
2	1	0	1	1	4.207220893716658E+002	-4.5511565E-001	-4.5529488E-001	-1.855662883387286E-003	2.000000000000000E+000	-6.0427287E-006	8.4487380E-007
2	1	0	0	1	4.207254893715799E+002	-4.5171693E-001	-4.5189250E-001	-1.807530261066854E-003	2.000000000000000E+000	-6.0488551E-006	8.1680935E-007
2	1	0	1	1	4.207288893714940E+002	-4.4831818E-001	-4.4849655E-001	-1.756244746608588E-003	2.000000000000000E+000	-6.0548259E-006	7.8766971E-007
2	1	0	1	1	4.207320893714132E+002	-4.4511941E-001	-4.4530493E-001	-1.713248289312703E-003	2.000000000000000E+000	-6.0602879E-006	7.6291792E-007
2	1	0	0	1	4.207354893713273E+002	-4.4172069E-001	-4.4192386E-001	-1.660004837261415E-003	2.000000000000000E+000	-6.0659186E-006	7.3359575E-007
2	1	0	1	1	4.207387893712439E+002	-4.3841249E-001	-4.3863481E-001	-1.609191687098895E-003	2.000000000000000E+000	-6.0712323E-006	7.0584747E-007
2	1	0	1	1	4.207420893711605E+002	-4.3505666E-001	-4.3525499E-001	-1.541567570075134E-003	2.000000000000000E+000	-6.0763268E-006	6.7097500E-007
2	1	0	0	1	4.207454893710747E+002	-4.3165791E-001	-4.3184811E-001	-1.504698929071919E-003	2.000000000000000E+000	-6.0814214E-006	6.4980139E-007
2	1	0	0	1	4.207486893709938E+002	-4.2845914E-001	-4.2866352E-001	-1.465071517835294E-003	2.000000000000000E+000	-6.0860871E-006	6.2802269E-007
2	1	0	1	1	4.207520893709079E+002	-4.2506042E-001	-4.2528254E-001	-1.423727805998472E-003	2.000000000000000E+000	-6.0908960E-006	6.0548655E-007
2	1	0	0	1	4.207554893708220E+002	-4.2166170E-001	-4.2190242E-001	-1.378798953540657E-003	2.000000000000000E+000	-6.0955686E-006	5.8171861E-007
2	1	0	0	1	4.207586893707412E+002	-4.1846293E-001	-4.1869661E-001	-1.333971766128646E-003	2.000000000000000E+000	-6.0998195E-006	5.5852945E-007
2	1	0	1	1	4.207620893706553E+002	-4.1506422E-001	-4.1528302E-001	-1.284631294326266E-003	2.000000000000000E+000	-6.1041678E-006	5.3348555E-007
2	1	0	0	1	4.207654893705694E+002	-4.1166553E-001	-4.1188550E-001	-1.239155761565294E-003	2.000000000000000E+000	-6.1083688E-006	5.1039029E-007
2	1	0	0	1	4.207838893701046E+002	-3.9327210E-001	-3.9349407E-001	-9.896222490997572E-004	2.000000000000000E+000	-6.1286732E-006	3.8941047E-007
2	1	0	1	1	4.208024893696347E+002	-3.7467963E-001	-3.7487763E-001	-7.505766797445751E-004	2.000000000000000E+000	-6.1483306E-006	2.8137441E-007
2	1	0	1	1	4.208056893695539E+002	-3.7148085E-001	-3.7166938E-001	-7.016360464149347E-004	2.000000000000000E+000	-6.1506075E-006	2.6077663E-007
2	1	0	0	1	4.208090893694680E+002	-3.6808214E-001	-3.6825573E-001	-6.536528493825237E-004	2.000000000000000E+000	-6.1528531E-006	2.4071142E-007
2	1	0	1	1	4.208124893693821E+002	-3.6468339E-001	-3.6488211E-001	-6.144975266958353E-004	2.000000000000000E+000	-6.1549613E-006	2.2421915E-007
2	1	0	1	1	4.208156893693013E+002	-3.6148465E-001	-3.6167783E-001	-5.737401508781621E-004	2.000000000000000E+000	-6.1568144E-006	2.0750909E-007
2	1	0	0	1	4.208190893692154E+002	-3.5808596E-001	-3.5828742E-001	-5.231287774639260E-004	2.000000000000000E+000	-6.1586156E-006	1.8743046E-007
2	1	0	1	1	4.208224893691295E+002	-3.5468724E-001	-3.5488737E-001	-4.797368750094691E-004	2.000000000000000E+000	-6.1602723E-006	1.7025256E-007
2	1	0	1	1	4.208256893690486E+002	-3.5148850E-001	-3.5169113E-001	-4.318693641910919E-004	2.000000000000000E+000	-6.1616852E-006	1.5188462E-007
2	1	0	0	1	4.208290893689627E+002	-3.4808975E-001	-3.4828395E-001	-3.835568209941201E-004	2.000000000000000E+000	-6.1630135E-006	1.3358668E-007
2	1	0	1	1	4.208324893688769E+002	-3.4469104E-001	-3.4489653E-001	-3.377605712671541E-004	2.000000000000000E+000	-6.1641886E-006	1.1649244E-007
2	1	0	1	1	4.208356893687960E+002	-3.4149227E-001	-3.4169832E-001	-2.989294954867704E-004	2.000000000000000E+000	-6.1651622E-006	1.0214371E-007
2	1	0	0	1	4.208390893687101E+002	-3.3809355E-001	-3.3827230E-001	-2.381297157095716E-004	2.000000000000000E+000	-6.1660126E-006	8.0552688E-008
2	1	0	1	1	4.208424893686242E+002	-3.3469486E-001	-3.3487514E-001	-1.900473360175658E-004	2.000000000000000E+000	-6.1666874E-006	6.3642126E-008
2	1	0	1	1	4.208456893685434E+002	-3.3149606E-001	-3.3165956E-001	-1.422611972562513E-004	2.000000000000000E+000	-6.1671717E-006	4.7182287E-008
2	1	0	0	1	4.208490893684575E+002	-3.2809740E-001	-3.2823876E-001	-8.533946388998527E-005	2.000000000000000E+000	-6.1674982E-006	2.8011719E-008
2	1	0	1	1	4.208524893683716E+002	-3.2469869E-001	-3.2484829E-001	-3.918718372422815E-005	2.000000000000000E+000	-6.1676601E-006	1.2729890E-008
2	1	0	1	1	4.208556893682908E+002	-3.2149991E-001	-3.2165298E-001	1.227099387263544E-005	2.000000000000000E+000	-6.1676560E-006	3.9470018E-009
2	1	0	0	1	4.208590893682049E+002	-3.1810120E-001	-3.1826630E-001	6.442339535558034E-005	2.000000000000000E+000	-6.1674609E-006	2.0503796E-008
2	1	0	1	1	4.208624893681190E+002	-3.1470251E-001	-3.1488624E-001	1.238232501397837E-004	2.000000000000000E+000	-6.1670894E-006	3.8990237E-008
2	1	0	1	1	4.208656893680381E+002	-3.1150371E-001	-3.1169170E-001	1.761790708674962E-004	2.000000000000000E+000	-6.1665601E-006	5.4913553E-008
2	1	0	0	1	4.208690893679523E+002	-3.0810502E-001	-3.0828744E-001	2.415371023289491E-004	2.000000000000000E+000	-6.1657852E-006	7.4462854E-008
2	1	0	1	1	4.208724893678664E+002	-3.0470628E-001	-3.0486047E-001	3.009153286332848E-004	2.000000000000000E+000	-6.1648116E-006	9.1737192E-008
2	1	0	1	1	4.208756893677855E+002	-3.0150750E-001	-3.0168161E-001	3.644119203158893E-004	2.000000000000000E+000	-6.1636997E-006	1.0993637E-007
2	1	0	0	1	4.208790893676996E+002	-2.9810879E-001	-2.9827777E-001	4.317725273305473E-004	2.000000000000000E+000	-6.1622836E-006	1.2878814E-007
2	1	0	1	1	4.208824893676137E+002	-2.9471010E-001	-2.9486001E-001	5.123132843815863E-004	2.000000000000000E+000	-6.1606252E-006	1.5106070E-007
2	1	0	1	1	4.208856893675329E+002	-2.9151133E-001	-2.9165089E-001	5.693062531880355E-004	2.000000000000000E+000	-6.1588448E-006	1.6603867E-007
2	1	0	0	1	4.208890893674470E+002	-2.8811261E-001	-2.8825161E-001	6.366109158231371E-004	2.000000000000000E+000	-6.1567343E-006	1.8350413E-007
2	1	0	1	1	4.208924893673611E+002	-2.8471392E-001	-2.8485259E-001	7.306433780968277E-004	2.000000000000000E+000	-6.1543601E-006	2.0812566E-007
2	1	0	1	1	4.208956893672803E+002	-2.8151512E-001	-2.8166023E-001	8.003931667190040E-004	2.000000000000000E+000	-6.1518608E-006	2.2543892E-007
2	1	0	0	1	4.208990893671944E+002	-2.7811641E-001	-2.7826512E-001	8.874578991556817E-004	2.000000000000000E+000	-6.1489277E-006	2.4694859E-007
2	1	0	1	1	4.209024893671085E+002	-2.7471772E-001	-2.7486381E-001	9.726688462099713E-004	2.000000000000000E+000	-6.1457104E-006	2.6735145E-007
2	1	0	1	1	4.209056893670277E+002	-2.7151895E-001	-2.7166957E-001	1.055922952036782E-003	2.000000000000000E+000	-6.1424139E-006	2.8686213E-007
2	1	0	0	1	4.209090893669418E+002	-2.6812026E-001	-2.6827064E-001	1.147341237045418E-003	2.000000000000000E+000	-6.1386045E-006	3.0779796E-007
2	1	0	1	1	4.209124893668559E+002	-2.6472154E-001	-2.6487595E-001	1.249966474127482E-003	2.000000000000000E+000	-6.1344772E-006	3.3108606E-007
2	1	0	1	1	4.209156893667750E+002	-2.6147833E-001	-2.6163363E-001	1.354123733820725E-003	2.000000000000000E+000	-6.1302599E-006	3.5428431E-007
2	1	0	0	1	4.209190893666892E+002	-2.5805745E-001	-2.5820395E-001	1.463754755422993E-003	2.000000000000000E+000	-6.1254127E-006	3.7794726E-007
2	1	0	0	1	4.209222893666083E+002	-2.5485864E-001	-2.5502446E-001	1.555739029754470E-003	2.000000000000000E+000	-6.1205269E-006	3.9675152E-007
2	1	0	1	1	4.209256893665224E+002	-2.5145993E-001	-2.5163087E-001	1.667245508027316E-003	2.000000000000000E+000	-6.1149763E-006	4.1953044E-007
2	1	0	0	1	4.209290893664365E+002	-2.4806121E-001	-2.4823479E-001	1.787761650878870E-003	2.000000000000000E+000	-6.1090491E-006	4.4378464E-007
2	1	0	0	1	4.209322893663557E+002	-2.4486245E-001	-2.4502756E-001	1.911466799371438E-003	2.000000000000000E+000	-6.1030792E-006	4.6836203E-007
2	1	0	1	1	4.209356893662698E+002	-2.4146372E-001	-2.4161707E-001	2.022646432048233E-003	2.000000000000000E+000	-6.0963212E-006	4.8870589E-007
2	1	0	0	1	4.209390893661839E+002	-2.3806502E-001	-2.3824221E-001	2.166162488083508E-003	2.000000000000000E+000	-6.0891371E-006	5.1607134E-007
2	1	0	0	1	4.209422893661031E+002	-2.3486623E-001	-2.3503219E-001	2.306640887066658E-003	2.000000000000000E+000	-6.0819248E-006	5.4213484E-007
2	1	0	1	1	4.209456893660172E+002	-2.3146755E-001	-2.3165198E-001	2.441290832211958E-003	2.000000000000000E+000	-6.0737807E-006	5.6552983E-007
2	1	0	0	1	4.209490893659313E+002	-2.2806884E-001	-2.2823693E-001	2.594231245984693E-003	2.000000000000000E+000	-6.0651582E-006	5.9209935E-007
2	1	0	0	1	4.209522893658504E+002	-2.2487006E-001	-2.2505957E-001	2.755553073347988E-003	2.000000000000000E+000	-6.0565417E-006	6.2016358E-007
2	1	0	1	1	4.209556893657646E+002	-2.2147135E-001	-2.2164683E-001	2.917627757415175E-003	2.000000000000000E+000	-6.0468324E-006	6.4668296E-007
2	1	0	0	1	4.209590893656787E+002	-2.1807265E-001	-2.1824487E-001	3.060659381571893E-003	2.000000000000000E+000	-6.0366042E-006	6.6797321E-007
2	1	0	0	1	4.209622893655978E+002	-2.1487388E-001	-2.1505228E-001	3.210113394106891E-003	2.000000000000000E+000	-6.0265152E-006	6.9034218E-007
2	1	0	1	1	4.209656893655119E+002	-2.1147516E-001	-2.1163072E-001	3.392166780395195E-003	2.000000000000000E+000	-6.0152247E-006	7.1788668E-007
2	1	0	0	1	4.209690893654260E+002	-2.0807645E-001	-2.0820612E-001	3.562809894204607E-003	2.000000000000000E+000	-6.0033385E-006	7.4179883E-007
2	1	0	0	1	4.209722893653452E+002	-2.0487769E-001	-2.0501772E-001	3.705204596220341E-003	2.000000000000000E+000	-5.9916524E-006	7.5963260E-007
2	1	0	1	1	4.209756893652593E+002	-2.0147899E-001	-2.0163320E-001	3.886906986190299E-003	2.000000000000000E+000	-5.9786735E-006	7.8372949E-007
2	1	0	0	1	4.209790893651734E+002	-1.9808027E-001	-1.9821675E-001	4.065059108082412E-003	2.000000000000000E+000	-5.9650911E-006	8.0576280E-007
2	1	0	0	1	4.209822893650926E+002	-1.9488151E-001	-1.9502451E-001	4.207324226141900E-003	2.000000000000000E+000	-5.9518015E-006	8.2053134E-007
2	1	0	1	1	4.209856893650067E+002	-1.9148281E-001	-1.9163390E-001	4.383495551610404E-003	2.000000000000000E+000	-5.9371255E-006	8.4002630E-007
2	1	0	0	1	4.209890893649208E+002	-1.8808408E-001	-1.8826552E-001	4.535732852703707E-003	2.000000000000000E+000	-5.9218983E-006	8.5392207E-007
2	1	0	0	1	4.209922893648400E+002	-1.8488532E-001	-1.8505396E-001	4.668557095374133E-003	2.000000000000000E+000	-5.9071108E-006	8.6393499E-007
2	1	0	1	1	4.209956893647541E+002	-1.8148659E-001	-1.8164016E-001	4.830438624533903E-003	2.000000000000000E+000	-5.8908918E-006	8.7740165E-007
2	1	0	0	1	4.209990893646682E+002	-1.7808789E-001	-1.7823629E-001	4.974432430693329E-003	2.000000000000000E+000	-5.8741557E-006	8.8662438E-007
2	1	0	0	1	4.210022893645873E+002	-1.7488912E-001	-1.7502984E-001	5.117464080649378E-003	2.000000000000000E+000	-5.8579581E-006	8.9570892E-007
2	1	0	1	1	4.210056893645015E+002	-1.7149042E-001	-1.7163451E-001	5.265261277175678E-003	2.000000000000000E+000	-5.8402411E-006	9.0370054E-007
2	1	0	0	1	4.210090893644156E+002	-1.6809171E-001	-1.6825570E-001	5.355918081052860E-003	2.000000000000000E+000	-5.8221385E-006	9.0116373E-007
2	1	0	0	1	4.210122893643347E+002	-1.6489293E-001	-1.6504197E-001	5.498871219121310E-003	2.000000000000000E+000	-5.8047135E-006	9.0754452E-007
2	1	0	1	1	4.210156893642488E+002	-1.6149423E-001	-1.6163048E-001	5.613028633827850E-003	2.000000000000000E+000	-5.7857469E-006	9.0723654E-007
2	1	0	0	1	4.210190893641629E+002	-1.5809551E-001	-1.5822817E-001	5.726191378683645E-003	2.000000000000000E+000	-5.7664165E-006	9.0604482E-007
2	1	0	0	1	4.210222893640821E+002	-1.5489674E-001	-1.5501596E-001	5.840651771783702E-003	2.000000000000000E+000	-5.7478601E-006	9.0539424E-007
2	1	0	1	1	4.210256893639962E+002	-1.5149802E-001	-1.5164198E-001	5.943737238885666E-003	2.000000000000000E+000	-5.7277543E-006	9.0132011E-007
2	1	0	0	1	4.210290893639103E+002	-1.4809932E-001	-1.4824603E-001	6.052346943033665E-003	2.000000000000000E+000	-5.7073080E-006	8.9723642E-007
2	1	0	0	1	4.210322893638295E+002	-1.4490053E-001	-1.4504094E-001	6.128557115880555E-003	2.000000000000000E+000	-5.6877752E-006	8.8889169E-007
2	1	0	1	1	4.210356893637436E+002	-1.4150183E-001	-1.4165425E-001	6.171152212543080E-003	2.000000000000000E+000	-5.6668105E-006	8.7416998E-007
2	1	0	0	1	4.210390893636577E+002	-1.3810314E-001	-1.3825931E-001	6.239238795023999E-003	2.000000000000000E+000	-5.6456706E-006	8.6263282E-007
2	1	0	0	1	4.210422893635769E+002	-1.3490437E-001	-1.3501824E-001	6.314560051941948E-003	2.000000000000000E+000	-5.6255353E-006	8.5258080E-007
2	1	0	1	1	4.210456893634910E+002	-1.3150565E-001	-1.3164961E-001	6.367732029320922E-003	2.000000000000000E+000	-5.6039166E-006	8.3830946E-007
2	1	0	0	1	4.210490893634051E+002	-1.2810695E-001	-1.2824677E-001	6.389903143887460E-003	2.000000000000000E+000	-5.5821902E-006	8.1948446E-007
2	1	0	0	1	4.210522893633242E+002	-1.2490816E-001	-1.2501523E-001	6.463525601308612E-003	2.000000000000000E+000	-5.5615751E-006	8.0803915E-007
2	1	0	1	1	4.210556893632383E+002	-1.2150946E-001	-1.2162079E-001	6.459448317643057E-003	2.000000000000000E+000	-5.5395558E-006	7.8560322E-007
2	1	0	0	1	4.210590893631525E+002	-1.1811075E-001	-1.1823207E-001	6.489686467951603E-003	2.000000000000000E+000	-5.5174951E-006	7.6728907E-007
2	1	0	0	1	4.210622893630716E+002	-1.1491198E-001	-1.1501402E-001	6.499329375037652E-003	2.000000000000000E+000	-5.4966722E-006	7.4751398E-007
2	1	0	1	1	4.210656893629857E+002	-1.1151327E-001	-1.1162072E-001	6.496105134465344E-003	2.000000000000000E+000	-5.4745246E-006	7.2509994E-007
2	1	0	0	1	4.210690893628998E+002	-1.0811457E-001	-1.0823186E-001	6.493136209125318E-003	2.000000000000000E+000	-5.4524071E-006	7.0276423E-007
2	1	0	0	1	4.210722893628190E+002	-1.0491578E-001	-1.0504180E-001	6.490588024280444E-003	2.000000000000000E+000	-5.4315819E-006	6.8178304E-007
2	1	0	1	1	4.210756893627331E+002	-1.0151709E-001	-1.0162409E-001	6.491124881965016E-003	2.000000000000000E+000	-5.4094639E-006	6.5965469E-007
2	1	0	0	1	4.210790893626472E+002	-9.8118380E-002	-9.8236389E-002	6.430598072195912E-003	2.000000000000000E+000	-5.3874510E-006	6.3171876E-007
2	1	0	0	1	4.210822893625664E+002	-9.4919607E-002	-9.5036656E-002	6.410861154593786E-003	2.000000000000000E+000	-5.3668655E-006	6.0926681E-007
2	1	0	1	1	4.210856893624805E+002	-9.1520891E-002	-9.1615103E-002	6.393278916099650E-003	2.000000000000000E+000	-5.3450522E-006	5.8572090E-007
2	1	0	0	1	4.210889893623971E+002	-8.8212639E-002	-8.8327795E-002	6.336623702996549E-003	2.000000000000000E+000	-5.3240055E-006	5.5970003E-007
2	1	0	0	1	4.210922893623138E+002	-8.4856771E-002	-8.4972858E-002	6.316765080494696E-003	2.000000000000000E+000	-5.3030772E-006	5.3675359E-007
2	1	0	1	1	4.210956893622279E+002	-8.1458069E-002	-8.1598252E-002	6.254810557281110E-003	2.000000000000000E+000	-5.2816617E-006	5.1038160E-007
2	1	0	1	1	4.210988893621470E+002	-7.8259274E-002	-7.8404620E-002	6.198181116572721E-003	2.000000000000000E+000	-5.2617070E-006	4.8596604E-007
2	1	0	0	1	4.211022893620611E+002	-7.4860565E-002	-7.4995175E-002	6.183991586234103E-003	2.000000000000000E+000	-5.2405926E-006	4.6376954E-007
2	1	0	1	1	4.211056893619752E+002	-7.1461871E-002	-7.1589410E-002	6.129788338027235E-003	2.000000000000000E+000	-5.2196315E-006	4.3882793E-007
2	1	0	1	1	4.211088893618944E+002	-6.8263099E-002	-6.8391085E-002	6.099168087045373E-003	2.000000000000000E+000	-5.2000269E-006	4.1712872E-007
2	1	0	0	1	4.211122893618085E+002	-6.4864390E-002	-6.4988613E-002	6.029502545303947E-003	2.000000000000000E+000	-5.1793663E-006	3.9184900E-007
2	1	0	1	1	4.211156893617226E+002	-6.1465684E-002	-6.1608545E-002	5.971440141487008E-003	2.000000000000000E+000	-5.1589245E-006	3.6789174E-007
2	1	0	1	1	4.211188893616418E+002	-5.8266900E-002	-5.8419872E-002	5.911217557331852E-003	2.000000000000000E+000	-5.1398724E-006	3.4533258E-007
2	1	0	0	1	4.211222893615559E+002	-5.4868199E-002	-5.5021480E-002	5.841900254442117E-003	2.000000000000000E+000	-5.1198354E-006	3.2143001E-007
2	1	0	1	1	4.211256893614700E+002	-5.1469494E-002	-5.1621053E-002	5.765310195117015E-003	2.000000000000000E+000	-5.1000557E-006	2.9761139E-007
2	1	0	1	1	4.211288893613892E+002	-4.8270714E-002	-4.8418146E-002	5.714236104480130E-003	2.000000000000000E+000	-5.0816484E-006	2.7667272E-007
2	1	0	0	1	4.211322893613033E+002	-4.4872008E-002	-4.5025602E-002	5.691954655170195E-003	2.000000000000000E+000	-5.0622098E-006	2.5628370E-007
2	1	0	1	1	4.211356893612174E+002	-4.1473307E-002	-4.1609284E-002	5.623223258226067E-003	2.000000000000000E+000	-5.0429294E-006	2.3397828E-007
2	1	0	1	1	4.211388893611365E+002	-3.8274523E-002	-3.8403068E-002	5.589460402128071E-003	2.000000000000000E+000	-5.0249500E-006	2.1465243E-007
2	1	0	0	1	4.211422893610506E+002	-3.4875821E-002	-3.5014346E-002	5.556901228859101E-003	2.000000000000000E+000	-5.0059434E-006	1.9457126E-007
2	1	0	1	1	4.211456893609648E+002	-3.1477116E-002	-3.1609215E-002	5.494709162727915E-003	2.000000000000000E+000	-4.9871205E-006	1.7368345E-007
2	1	0	1	1	4.211488893608839E+002	-2.8278336E-002	-2.8397655E-002	5.463846732770117E-003	2.000000000000000E+000	-4.9695527E-006	1.5516044E-007
2	1	0	0	1	4.211522893607980E+002	-2.4879629E-002	-2.4993671E-002	5.416136886500084E-003	2.000000000000000E+000	-4.9510118E-006	1.3536915E-007
2	1	0	1	1	4.211556893607121E+002	-2.1480927E-002	-2.1598842E-002	5.361136285500848E-003	2.000000000000000E+000	-4.9326618E-006	1.1579434E-007
2	1	0	1	1	4.211588893606313E+002	-1.8282145E-002	-1.8413227E-002	5.316732197934465E-003	2.000000000000000E+000	-4.9155456E-006	9.7898194E-008
2	1	0	0	1	4.211622893605454E+002	-1.4883442E-002	-1.5014077E-002	5.301608058531804E-003	2.000000000000000E+000	-4.8974453E-006	7.9598749E-008
2	1	0	1	1	4.211656893604595E+002	-1.1484737E-002	-1.1615813E-002	5.247555850291991E-003	2.000000000000000E+000	-4.8794718E-006	6.0954626E-008
2	1	0	1	1	4.211688893603787E+002	-8.2859574E-003	-8.4246006E-003	5.200647462334035E-003	2.000000000000000E+000	-4.8627217E-006	4.3813376E-008
2	1	0	0	1	4.211722893602928E+002	-4.8872521E-003	-5.0240499E-003	5.197297957905272E-003	2.000000000000000E+000	-4.8449956E-006	2.6111485E-008
2	1	0	1	1	4.211756893602069E+002	-1.4811130E-003	-1.6348180E-003	5.151745716708914E-003	2.000000000000000E+000	-4.8273641E-006	8.4221670E-009
2	1	0	1	1	4.211788893601261E+002	1.7102322E-003	1.5754701E-003	5.119817666066701E-003	2.000000000000000E+000	-4.8108941E-006	8.0661193E-009
2	1	0	0	1	4.211822893600402E+002	5.1089353E-003	4.9994206E-003	5.095632918952708E-003	2.000000000000000E+000	-4.7934764E-006	2.5475213E-008
2	1	0	1	1	4.211856893599543E+002	8.5076373E-003	8.4048025E-003	5.060667192628893E-003	2.000000000000000E+000	-4.7761755E-006	4.2533909E-008
2	1	0	1	1	4.211888893598734E+002	1.1706416E-002	1.1600591E-002	5.036784670604283E-003	2.000000000000000E+000	-4.7599774E-006	5.8429681E-008
2	1	0	0	1	4.211922893597875E+002	1.5105120E-002	1.5036625E-002	5.006123377097542E-003	2.000000000000000E+000	-4.7428489E-006	7.5275196E-008
2	1	0	1	1	4.211956893597016E+002	1.8503824E-002	1.8394696E-002	4.952484334595900E-003	2.000000000000000E+000	-4.7258836E-006	9.1099444E-008
2	1	0	1	1	4.211988893596208E+002	2.1702603E-002	2.1598497E-002	4.952268229862961E-003	2.000000000000000E+000	-4.7099961E-006	1.0696155E-007
2	1	0	0	1	4.212022893595349E+002	2.5101304E-002	2.5003370E-002	4.918114730511061E-003	2.000000000000000E+000	-4.6931646E-006	1.2296944E-007
2	1	0	1	1	4.212056893594490E+002	2.8500006E-002	2.8400360E-002	4.893348885101040E-003	2.000000000000000E+000	-4.6764408E-006	1.3897287E-007
2	1	0	1	1	4.212088893593682E+002	3.1698786E-002	3.1580627E-002	4.889647113911162E-003	2.000000000000000E+000	-4.6607470E-006	1.5441812E-007
2	1	0	0	1	4.212122893592823E+002	3.5097487E-002	3.5011452E-002	4.875430864679699E-003	2.000000000000000E+000	-4.6440828E-006	1.7069591E-007
2	1	0	1	1	4.212156893591964E+002	3.8496193E-002	3.8401064E-002	4.837174829117427E-003	2.000000000000000E+000	-4.6275331E-006	1.8575265E-007
2	1	0	1	1	4.212188893591156E+002	4.1694965E-002	4.1573197E-002	4.834112685239237E-003	2.000000000000000E+000	-4.6120176E-006	2.0096952E-007
2	1	0	0	1	4.212222893590297E+002	4.5093674E-002	4.5005284E-002	4.807538785704935E-003	2.000000000000000E+000	-4.5955849E-006	2.1636465E-007
2	1	0	1	1	4.212256893589438E+002	4.8492379E-002	4.8409779E-002	4.806682022353920E-003	2.000000000000000E+000	-4.5791976E-006	2.3269041E-007
2	1	0	1	1	4.212288893588629E+002	5.1691160E-002	5.1621210E-002	4.775518908475836E-003	2.000000000000000E+000	-4.5638258E-006	2.4651806E-007
2	1	0	0	1	4.212322893587771E+002	5.5089861E-002	5.5012088E-002	4.767840767666100E-003	2.000000000000000E+000	-4.5475490E-006	2.6228886E-007
2	1	0	1	1	4.212356893586912E+002	5.8488566E-002	5.8439225E-002	4.762845122331795E-003	2.000000000000000E+000	-4.5312959E-006	2.7833698E-007
2	1	0	1	1	4.212388893586103E+002	6.1687343E-002	6.1605506E-002	4.742226965148200E-003	2.000000000000000E+000	-4.5160459E-006	2.9214729E-007
2	1	0	0	1	4.212422893585244E+002	6.5086044E-002	6.5009229E-002	4.733521040937690E-003	2.000000000000000E+000	-4.4998801E-006	3.0772256E-007
2	1	0	1	1	4.212456893584385E+002	6.8484746E-002	6.8405837E-002	4.701454154292149E-003	2.000000000000000E+000	-4.4837975E-006	3.2160690E-007
2	1	0	1	1	4.212488893583577E+002	7.1683526E-002	7.1587257E-002	4.689957523805795E-003	2.000000000000000E+000	-4.4687290E-006	3.3574119E-007
2	1	0	0	1	4.212522893582718E+002	7.5082235E-002	7.4971788E-002	4.674632038343896E-003	2.000000000000000E+000	-4.4527501E-006	3.5046551E-007
2	1	0	1	1	4.212556893581859E+002	7.8480937E-002	7.8400061E-002	4.672049682418827E-003	2.000000000000000E+000	-4.4368171E-006	3.6628899E-007
2	1	0	1	1	4.212588893581051E+002	8.1679717E-002	8.1600413E-002	4.668257185312544E-003	2.000000000000000E+000	-4.4218314E-006	3.8093171E-007
2	1	0	0	1	4.212622893580192E+002	8.5078411E-002	8.4976166E-002	4.653663053341028E-003	2.000000000000000E+000	-4.4059279E-006	3.9545046E-007
2	1	0	1	1	4.212655893579358E+002	8.8434279E-002	8.8334814E-002	4.654431833517145E-003	2.000000000000000E+000	-4.3905284E-006	4.1114836E-007
2	1	0	1	1	4.212688893578525E+002	9.1742538E-002	9.1648445E-002	4.626315930515081E-003	2.000000000000000E+000	-4.3751652E-006	4.2399466E-007
2	1	0	0	1	4.212722893577666E+002	9.5141239E-002	9.5031686E-002	4.629643547680973E-003	2.000000000000000E+000	-4.3593891E-006	4.3996283E-007
2	1	0	0	1	4.212753893576883E+002	9.8240070E-002	9.8157451E-002	4.629821604891886E-003	2.000000000000000E+000	-4.3449977E-006	4.5445148E-007
2	1	0	1	1	4.212769893576478E+002	9.9906117E-002	9.9772625E-002	4.645478911697865E-003	2.000000000000000E+000	-4.3375671E-006	4.6349163E-007
2	0	0	0	1	4.212773893576377E+002	1.0023932E-001	1.0018850E-001	4.643266554921865E-003	2.000000000000000E+000	-4.3356990E-006	4.6520191E-007
2	0	0	1	1	4.212790893575948E+002	9.8473303E-002	9.8405533E-002	3.542570520312441E-003	2.000000000000000E+000	-4.3295981E-006	3.4860855E-007
2	0	0	0	1	4.212824893575089E+002	9.5074601E-002	9.4941638E-002	2.366197016090157E-003	2.000000000000000E+000	-4.3198024E-006	2.2465062E-007
2	0	0	1	1	4.212858893574230E+002	9.1675900E-002	9.1545805E-002	1.819626269540697E-003	2.000000000000000E+000	-4.3128116E-006	1.6657916E-007
2	0	0	1	1	4.212890893573422E+002	8.8454902E-002	8.8306010E-002	1.503346301509129E-003	2.000000000000000E+000	-4.3075761E-006	1.3275451E-007
2	0	0	0	1	4.212924893572563E+002	8.5011773E-002	8.4875956E-002	1.263773507283381E-003	2.000000000000000E+000	-4.3029540E-006	1.0726399E-007
2	0	0	0	1	4.212956893571754E+002	8.1812993E-002	8.1678383E-002	1.098665050471936E-003	2.000000000000000E+000	-4.2992356E-006	8.9737185E-008
2	0	0	1	1	4.212990893570895E+002	7.8414291E-002	7.8273766E-002	9.433446493100454E-004	2.000000000000000E+000	-4.2958359E-006	7.3839139E-008
2	0	0	0	1	4.213024893570037E+002	7.5015590E-002	7.4879326E-002	8.056519893746847E-004	2.000000000000000E+000	-4.2929232E-006	6.0326677E-008
2	0	0	0	1	4.213056893569228E+002	7.1816802E-002	7.1676403E-002	6.916254200177744E-004	2.000000000000000E+000	-4.2905822E-006	4.9573224E-008
2	0	0	1	1	4.213090893568369E+002	6.8418100E-002	6.8296969E-002	5.833955455424693E-004	2.000000000000000E+000	-4.2884826E-006	3.9844146E-008
2	0	0	0	1	4.213124893567510E+002	6.5019399E-002	6.4877979E-002	4.809051532106423E-004	2.000000000000000E+000	-4.2867300E-006	3.1200155E-008
2	0	0	0	1	4.213156893566702E+002	6.1820626E-002	6.1698344E-002	3.910787132819374E-004	2.000000000000000E+000	-4.2853876E-006	2.4128909E-008
2	0	0	1	1	4.213190893565843E+002	5.8421925E-002	5.8301229E-002	2.974467402547514E-004	2.000000000000000E+000	-4.2842858E-006	1.7341511E-008
2	0	0	0	1	4.213224893564984E+002	5.5023216E-002	5.4915693E-002	2.065179365634629E-004	2.000000000000000E+000	-4.2834831E-006	1.1341076E-008
2	0	0	0	1	4.213256893564176E+002	5.1824436E-002	5.1697128E-002	1.251316013252792E-004	2.000000000000000E+000	-4.2830038E-006	6.4689445E-009
2	0	0	1	1	4.213290893563317E+002	4.8425738E-002	4.8273947E-002	4.885027663069277E-005	2.000000000000000E+000	-4.2827737E-006	2.3581956E-009
2	0	0	0	1	4.213324893562458E+002	4.5027029E-002	4.4881791E-002	-3.228175758286748E-005	2.000000000000000E+000	-4.2827965E-006	1.4488631E-009
2	0	0	0	1	4.213356893561649E+002	4.1828252E-002	4.1678756E-002	-1.037619743631995E-004	2.000000000000000E+000	-4.2830634E-006	4.3246700E-009
2	0	0	1	1	4.213390893560791E+002	3.8429551E-002	3.8268540E-002	-1.692077440803063E-004	2.000000000000000E+000	-4.2835900E-006	6.4753332E-009
2	0	0	0	1	4.213424893559932E+002	3.5030849E-002	3.4876894E-002	-2.395588684767817E-004	2.000000000000000E+000	-4.2843335E-006	8.3550695E-009
2	0	0	0	1	4.213456893559123E+002	3.1832069E-002	3.1661134E-002	-3.056213268526633E-004	2.000000000000000E+000	-4.2852557E-006	9.6763175E-009
2	0	0	1	1	4.213490893558264E+002	2.8433368E-002	2.8271269E-002	-3.684122170701191E-004	2.000000000000000E+000	-4.2864654E-006	1.0415481E-008
2	0	0	0	1	4.213524893557405E+002	2.5034664E-002	2.4878222E-002	-4.342063436827926E-004	2.000000000000000E+000	-4.2878792E-006	1.0802282E-008
2	0	0	0	1	4.213556893556597E+002	2.1835884E-002	2.1673661E-002	-4.908407665387450E-004	2.000000000000000E+000	-4.2894067E-006	1.0638316E-008
2	0	0	1	1	4.213590893555738E+002	1.8437183E-002	1.8277181E-002	-5.505966197498903E-004	2.000000000000000E+000	-4.2912379E-006	1.0063355E-008
2	0	0	0	1	4.213624893554879E+002	1.5038478E-002	1.4902066E-002	-6.075221974394182E-004	2.000000000000000E+000	-4.2932570E-006	9.0533359E-009
2	0	0	0	1	4.213656893554071E+002	1.1839700E-002	1.1673084E-002	-6.721236540973528E-004	2.000000000000000E+000	-4.2953529E-006	7.8457560E-009
2	0	0	1	1	4.213690893553212E+002	8.4409965E-003	8.2638869E-003	-7.279760553501550E-004	2.000000000000000E+000	-4.2977940E-006	6.0159118E-009
2	0	0	0	1	4.213724893552353E+002	5.0422936E-003	4.8799980E-003	-7.820369863490370E-004	2.000000000000000E+000	-4.3004120E-006	3.8163388E-009
2	0	0	0	1	4.213756893551545E+002	1.8435145E-003	1.6391873E-003	-8.436059704232919E-004	2.000000000000000E+000	-4.3030582E-006	1.3828282E-009
2	0	0	1	1	4.213790893550686E+002	-1.5551889E-003	-1.7649233E-003	-8.965530635350657E-004	2.000000000000000E+000	-4.3060795E-006	1.5823475E-009
2	0	0	0	1	4.213824893549827E+002	-4.9538929E-003	-5.1409290E-003	-9.457187274544277E-004	2.000000000000000E+000	-4.3092632E-006	4.8618727E-009
2	0	0	0	1	4.213856893549018E+002	-8.1526740E-003	-8.3517265E-003	-9.982107108953593E-004	2.000000000000000E+000	-4.3124232E-006	8.3367828E-009
2	0	0	1	1	4.213890893548160E+002	-1.1551377E-002	-1.1762706E-002	-1.053114620935956E-003	2.000000000000000E+000	-4.3159707E-006	1.2387478E-008
2	0	0	0	1	4.213924893547301E+002	-1.4950082E-002	-1.5144560E-002	-1.102721433358054E-003	2.000000000000000E+000	-4.3196837E-006	1.6700231E-008
2	0	0	0	1	4.213956893546492E+002	-1.8148864E-002	-1.8351287E-002	-1.151732048848920E-003	2.000000000000000E+000	-4.3233372E-006	2.1135765E-008
2	0	0	1	1	4.213990893545633E+002	-2.1547569E-002	-2.1732634E-002	-1.201464875718251E-003	2.000000000000000E+000	-4.3273972E-006	2.6110996E-008
2	0	0	0	1	4.214024893544774E+002	-2.4946272E-002	-2.5121612E-002	-1.256377633778050E-003	2.000000000000000E+000	-4.3316236E-006	3.1562234E-008
2	0	0	0	1	4.214056893543966E+002	-2.8145052E-002	-2.8329484E-002	-1.304238754907296E-003	2.000000000000000E+000	-4.3357668E-006	3.6948411E-008
2	0	0	1	1	4.214090893543107E+002	-3.1543761E-002	-3.1738810E-002	-1.357237982119845E-003	2.000000000000000E+000	-4.3403552E-006	4.3077119E-008
2	0	0	0	1	4.214124893542248E+002	-3.4942459E-002	-3.5140634E-002	-1.408633837187763E-003	2.000000000000000E+000	-4.3451073E-006	4.9500287E-008
2	0	0	0	1	4.214156893541440E+002	-3.8141243E-002	-3.8324215E-002	-1.451302276730831E-003	2.000000000000000E+000	-4.3497271E-006	5.5620021E-008
2	0	0	1	1	4.214190893540581E+002	-4.1539945E-002	-4.1745871E-002	-1.507829892898370E-003	2.000000000000000E+000	-4.3548212E-006	6.2945674E-008
2	0	0	0	1	4.214224893539722E+002	-4.4938650E-002	-4.5116279E-002	-1.556818789974088E-003	2.000000000000000E+000	-4.3600826E-006	7.0237874E-008
2	0	0	0	1	4.214256893538914E+002	-4.8137434E-002	-4.8338525E-002	-1.600266642996456E-003	2.000000000000000E+000	-4.3651808E-006	7.7354528E-008
2	0	0	1	1	4.214290893538055E+002	-5.1536135E-002	-5.1748112E-002	-1.653818861238200E-003	2.000000000000000E+000	-4.3707737E-006	8.5582002E-008
2	0	0	0	1	4.214324893537196E+002	-5.4934841E-002	-5.5157438E-002	-1.705605094775822E-003	2.000000000000000E+000	-4.3765326E-006	9.4076810E-008
2	0	0	0	1	4.214356893536387E+002	-5.8133621E-002	-5.8364034E-002	-1.752952593672794E-003	2.000000000000000E+000	-4.3821128E-006	1.0230939E-007
2	0	0	1	1	4.214390893535528E+002	-6.1532326E-002	-6.1739031E-002	-1.800073700496795E-003	2.000000000000000E+000	-4.3882119E-006	1.1113481E-007
2	0	0	0	1	4.214424893534670E+002	-6.4931028E-002	-6.5123804E-002	-1.845680480694986E-003	2.000000000000000E+000	-4.3944565E-006	1.2019774E-007
2	0	0	0	1	4.214456893533861E+002	-6.8129808E-002	-6.8337657E-002	-1.904105182560060E-003	2.000000000000000E+000	-4.4005046E-006	1.3012209E-007
2	0	0	1	1	4.214490893533002E+002	-7.1528517E-002	-7.1734138E-002	-1.952796713582445E-003	2.000000000000000E+000	-4.4071226E-006	1.4008219E-007
2	0	0	0	1	4.214524893532143E+002	-7.4927211E-002	-7.5141810E-002	-2.007397891975411E-003	2.000000000000000E+000	-4.4139028E-006	1.5083951E-007
2	0	0	0	1	4.214556893531335E+002	-7.8125998E-002	-7.8330219E-002	-2.053556548131989E-003	2.000000000000000E+000	-4.4204457E-006	1.6085554E-007
2	0	0	1	1	4.214590893530476E+002	-8.1524707E-002	-8.1730515E-002	-2.114605671704333E-003	2.000000000000000E+000	-4.4275948E-006	1.7282781E-007
2	0	0	0	1	4.214624893529617E+002	-8.4923401E-002	-8.5129671E-002	-2.165588249514863E-003	2.000000000000000E+000	-4.4349204E-006	1.8435581E-007
2	0	0	0	1	4.214656893528809E+002	-8.8188820E-002	-8.8357635E-002	-2.233247680684742E-003	2.000000000000000E+000	-4.4420080E-006	1.9732448E-007
2	0	0	1	1	4.214690893527950E+002	-9.1587529E-002	-9.1772050E-002	-2.281054143910891E-003	2.000000000000000E+000	-4.4497374E-006	2.0933702E-007
2	0	0	1	1	4.214722893527141E+002	-9.4786309E-002	-9.4975352E-002	-2.334699324471022E-003	2.000000000000000E+000	-4.4571684E-006	2.2173889E-007
2	0	0	0	1	4.214756893526283E+002	-9.8185018E-002	-9.8375902E-002	-2.396881131123033E-003	2.000000000000000E+000	-4.4652697E-006	2.3579534E-007
2	0	0	1	1	4.214790893525424E+002	-1.0158372E-001	-1.0175801E-001	-2.458640859761847E-003	2.000000000000000E+000	-4.4735739E-006	2.5018639E-007
2	0	0	1	1	4.214822893524615E+002	-1.0478250E-001	-1.0495137E-001	-2.513033594914305E-003	2.000000000000000E+000	-4.4815779E-006	2.6374630E-007
2	0	0	0	1	4.214856893523756E+002	-1.0818119E-001	-1.0835333E-001	-2.584564771192770E-003	2.000000000000000E+000	-4.4903054E-006	2.8004621E-007
2	0	0	1	1	4.214890893522897E+002	-1.1157991E-001	-1.1175336E-001	-2.644799980225779E-003	2.000000000000000E+000	-4.4992462E-006	2.9556529E-007
2	0	0	1	1	4.214922893522089E+002	-1.1477870E-001	-1.1495350E-001	-2.706516405578445E-003	2.000000000000000E+000	-4.5078555E-006	3.1112353E-007
2	0	0	0	1	4.214956893521230E+002	-1.1817739E-001	-1.1835569E-001	-2.788162210678527E-003	2.000000000000000E+000	-4.5172610E-006	3.2999486E-007
2	0	0	1	1	4.214990893520371E+002	-1.2157610E-001	-1.2174252E-001	-2.858726958068776E-003	2.000000000000000E+000	-4.5269153E-006	3.4802861E-007
2	0	0	1	1	4.215022893519563E+002	-1.2477489E-001	-1.2495127E-001	-2.928886177960513E-003	2.000000000000000E+000	-4.5362249E-006	3.6596805E-007
2	0	0	0	1	4.215056893518704E+002	-1.2817360E-001	-1.2837675E-001	-3.018070385072250E-003	2.000000000000000E+000	-4.5464030E-006	3.8745009E-007
2	0	0	1	1	4.215090893517845E+002	-1.3157229E-001	-1.3176928E-001	-3.099344672591535E-003	2.000000000000000E+000	-4.5568549E-006	4.0839842E-007
2	0	0	1	1	4.215122893517037E+002	-1.3477108E-001	-1.3497753E-001	-3.185252331240923E-003	2.000000000000000E+000	-4.5669590E-006	4.2993750E-007
2	0	0	0	1	4.215156893516178E+002	-1.3816978E-001	-1.3839883E-001	-3.266989731218928E-003	2.000000000000000E+000	-4.5779916E-006	4.5214753E-007
2	0	0	1	1	4.215190893515319E+002	-1.4156848E-001	-1.4177088E-001	-3.351507792892033E-003	2.000000000000000E+000	-4.5892971E-006	4.7514624E-007
2	0	0	1	1	4.215222893514510E+002	-1.4476725E-001	-1.4497329E-001	-3.442435320145397E-003	2.000000000000000E+000	-4.6002187E-006	4.9906117E-007
2	0	0	0	1	4.215256893513651E+002	-1.4816596E-001	-1.4836721E-001	-3.546775689392254E-003	2.000000000000000E+000	-4.6121681E-006	5.2622522E-007
2	0	0	1	1	4.215290893512793E+002	-1.5156466E-001	-1.5178443E-001	-3.653105916024885E-003	2.000000000000000E+000	-4.6244622E-006	5.5448464E-007
2	0	0	1	1	4.215322893511984E+002	-1.5476346E-001	-1.5496470E-001	-3.758038760527910E-003	2.000000000000000E+000	-4.6363739E-006	5.8236333E-007
2	0	0	0	1	4.215356893511125E+002	-1.5816216E-001	-1.5836056E-001	-3.883634643231413E-003	2.000000000000000E+000	-4.6494342E-006	6.1501453E-007
2	0	0	1	1	4.215390893510266E+002	-1.6156086E-001	-1.6176148E-001	-4.000586882102638E-003	2.000000000000000E+000	-4.6628925E-006	6.4714084E-007
2	0	0	1	1	4.215422893509458E+002	-1.6475965E-001	-1.6496466E-001	-4.127775826115475E-003	2.000000000000000E+000	-4.6759537E-006	6.8093715E-007
2	0	0	0	1	4.215456893508599E+002	-1.6815835E-001	-1.6839053E-001	-4.265285580064905E-003	2.000000000000000E+000	-4.6902937E-006	7.1823371E-007
2	0	0	1	1	4.215490893507740E+002	-1.7155707E-001	-1.7178190E-001	-4.403152420642653E-003	2.000000000000000E+000	-4.7050867E-006	7.5638189E-007
2	0	0	1	1	4.215522893506932E+002	-1.7475583E-001	-1.7496079E-001	-4.540585566034372E-003	2.000000000000000E+000	-4.7194503E-006	7.9442447E-007
2	0	0	0	1	4.215556893506073E+002	-1.7815453E-001	-1.7839172E-001	-4.688357604967067E-003	2.000000000000000E+000	-4.7352082E-006	8.3636422E-007
2	0	0	1	1	4.215590893505214E+002	-1.8155324E-001	-1.8179035E-001	-4.852067230846526E-003	2.000000000000000E+000	-4.7514905E-006	8.8205900E-007
2	0	0	1	1	4.215622893504406E+002	-1.8475202E-001	-1.8498604E-001	-5.007073857511098E-003	2.000000000000000E+000	-4.7673238E-006	9.2623878E-007
2	0	0	0	1	4.215656893503547E+002	-1.8815073E-001	-1.8837985E-001	-5.164882544340804E-003	2.000000000000000E+000	-4.7846897E-006	9.7295981E-007
2	0	0	1	1	4.215690893502688E+002	-1.9154944E-001	-1.9177490E-001	-5.334708270796303E-003	2.000000000000000E+000	-4.8026059E-006	1.0230632E-006
2	0	0	1	1	4.215722893501879E+002	-1.9474822E-001	-1.9497375E-001	-5.507577798683355E-003	2.000000000000000E+000	-4.8200109E-006	1.0738331E-006
2	0	0	0	1	4.215756893501020E+002	-1.9814691E-001	-1.9834493E-001	-5.686056826198179E-003	2.000000000000000E+000	-4.8391144E-006	1.1278006E-006
2	0	0	1	1	4.215790893500161E+002	-2.0154561E-001	-2.0176290E-001	-5.873799258733922E-003	2.000000000000000E+000	-4.8588240E-006	1.1851148E-006
2	0	0	1	1	4.215822893499353E+002	-2.0474440E-001	-2.0496608E-001	-6.063821941036940E-003	2.000000000000000E+000	-4.8779821E-006	1.2428778E-006
2	0	0	0	1	4.215856893498494E+002	-2.0814312E-001	-2.0834848E-001	-6.256590006099336E-003	2.000000000000000E+000	-4.8989996E-006	1.3035510E-006
2	0	0	1	1	4.215890893497635E+002	-2.1154180E-001	-2.1176602E-001	-6.465170235727180E-003	2.000000000000000E+000	-4.9206892E-006	1.3691034E-006
2	0	0	1	1	4.215922893496827E+002	-2.1474059E-001	-2.1498320E-001	-6.655173074856691E-003	2.000000000000000E+000	-4.9417431E-006	1.4307503E-006
2	0	0	0	1	4.215956893495968E+002	-2.1813929E-001	-2.1837063E-001	-6.837620684321616E-003	2.000000000000000E+000	-4.9647547E-006	1.4931355E-006
2	0	0	1	1	4.215990893495109E+002	-2.2153801E-001	-2.2176650E-001	-7.028130985600012E-003	2.000000000000000E+000	-4.9883856E-006	1.5586040E-006
2	0	0	1	1	4.216022893494301E+002	-2.2473678E-001	-2.2497539E-001	-7.213565295387525E-003	2.000000000000000E+000	-5.0112308E-006	1.6228747E-006
2	0	0	0	1	4.216056893493442E+002	-2.2813550E-001	-2.2837363E-001	-7.417349420575231E-003	2.000000000000000E+000	-5.0361818E-006	1.6939271E-006
2	0	0	1	1	4.216090893492583E+002	-2.3153418E-001	-2.3177481E-001	-7.627884020985208E-003	2.000000000000000E+000	-5.0618260E-006	1.7679514E-006
2	0	0	1	1	4.216122893491774E+002	-2.3473296E-001	-2.3495279E-001	-7.802245365989308E-003	2.000000000000000E+000	-5.0865724E-006	1.8331593E-006
2	0	0	0	1	4.216156893490916E+002	-2.3813167E-001	-2.3835756E-001	-7.986413101692347E-003	2.000000000000000E+000	-5.1134916E-006	1.9036220E-006
2	0	0	1	1	4.216190893490057E+002	-2.4153037E-001	-2.4175608E-001	-8.197415703155735E-003	2.000000000000000E+000	-5.1410675E-006	1.9817751E-006
2	0	0	1	1	4.216222893489248E+002	-2.4472916E-001	-2.4496727E-001	-8.353638628432247E-003	2.000000000000000E+000	-5.1676093E-006	2.0463681E-006
2	0	0	0	1	4.216256893488389E+002	-2.4812786E-001	-2.4836846E-001	-8.535520349384262E-003	2.000000000000000E+000	-5.1963848E-006	2.1199539E-006
2	0	0	1	1	4.216290893487530E+002	-2.5152659E-001	-2.5176951E-001	-8.710259840578743E-003	2.000000000000000E+000	-5.2257610E-006	2.1929779E-006
2	0	0	1	1	4.216322893486722E+002	-2.5472537E-001	-2.5496936E-001	-8.860748309598421E-003	2.000000000000000E+000	-5.2539299E-006	2.2592194E-006
2	0	0	0	1	4.216356893485863E+002	-2.5812405E-001	-2.5835237E-001	-9.035669923165790E-003	2.000000000000000E+000	-5.2844316E-006	2.3343866E-006
2	0	0	1	1	4.216389893485029E+002	-2.6145613E-001	-2.6166406E-001	-9.178735992723619E-003	2.000000000000000E+000	-5.3145336E-006	2.4017454E-006
2	0	0	1	1	4.216422893484196E+002	-2.6478818E-001	-2.6500237E-001	-9.310931778539561E-003	2.000000000000000E+000	-5.3451226E-006	2.4674189E-006
2	0	0	0	1	4.216456893483337E+002	-2.6818687E-001	-2.6841122E-001	-9.464479952233255E-003	2.000000000000000E+000	-5.3771105E-006	2.5403726E-006
2	0	0	0	1	4.216488893482529E+002	-2.7138567E-001	-2.7160633E-001	-9.595151735872304E-003	2.000000000000000E+000	-5.4076640E-006	2.6061039E-006
2	0	0	1	1	4.216522893481670E+002	-2.7478436E-001	-2.7500486E-001	-9.728807763288660E-003	2.000000000000000E+000	-5.4405755E-006	2.6754694E-006
2	0	0	0	1	4.216556893480811E+002	-2.7818310E-001	-2.7838504E-001	-9.827423799651996E-003	2.000000000000000E+000	-5.4738825E-006	2.7358078E-006
2	0	0	0	1	4.216588893480002E+002	-2.8138185E-001	-2.8159967E-001	-9.923651131490824E-003	2.000000000000000E+000	-5.5055352E-006	2.7944968E-006
2	0	0	1	1	4.216622893479143E+002	-2.8478053E-001	-2.8498736E-001	-1.006535255146444E-002	2.000000000000000E+000	-5.5395722E-006	2.8684983E-006
2	0	0	0	1	4.216656893478284E+002	-2.8817925E-001	-2.8839570E-001	-1.017810831981475E-002	2.000000000000000E+000	-5.5740443E-006	2.9353228E-006
2	0	0	0	1	4.216688893477476E+002	-2.9137802E-001	-2.9159808E-001	-1.024249077442316E-002	2.000000000000000E+000	-5.6067638E-006	2.9866906E-006
2	0	0	1	1	4.217022893469039E+002	-3.2476532E-001	-3.2493109E-001	-1.049815479151828E-002	2.000000000000000E+000	-5.9497452E-006	3.4111767E-006
2	0	0	0	1	4.217056893468180E+002	-3.2816404E-001	-3.2834777E-001	-1.046128666263634E-002	2.000000000000000E+000	-5.9854506E-006	3.4349403E-006
2	0	0	0	1	4.217088893467371E+002	-3.3136281E-001	-3.3155319E-001	-1.044581439067162E-002	2.000000000000000E+000	-6.0189877E-006	3.4633431E-006
2	0	0	1	1	4.217122893466512E+002	-3.3476153E-001	-3.3496648E-001	-1.040487755453794E-002	2.000000000000000E+000	-6.0545299E-006	3.4852851E-006
2	0	0	0	1	4.217156893465653E+002	-3.3816019E-001	-3.3835417E-001	-1.040202995354769E-002	2.000000000000000E+000	-6.0899852E-006	3.5195703E-006
2	0	0	0	1	4.217188893464845E+002	-3.4135896E-001	-3.4157833E-001	-1.034037045877390E-002	2.000000000000000E+000	-6.1232467E-006	3.5320465E-006
2	0	0	1	1	4.217222893463986E+002	-3.4475768E-001	-3.4497952E-001	-1.029382592023464E-002	2.000000000000000E+000	-6.1584128E-006	3.5511591E-006
2	0	0	0	1	4.217256893463127E+002	-3.4815639E-001	-3.4836850E-001	-1.022798385214023E-002	2.000000000000000E+000	-6.1933961E-006	3.5631074E-006
2	0	0	0	1	4.217288893462319E+002	-3.5135517E-001	-3.5158700E-001	-1.022742471068341E-002	2.000000000000000E+000	-6.2262061E-006	3.5958296E-006
2	0	0	1	1	4.217322893461460E+002	-3.5475388E-001	-3.5499552E-001	-1.017201992993556E-002	2.000000000000000E+000	-6.2609797E-006	3.6110214E-006
2	0	0	0	1	4.217356893460601E+002	-3.5815257E-001	-3.5838547E-001	-1.009830820791345E-002	2.000000000000000E+000	-6.2954978E-006	3.6190870E-006
2	0	0	0	1	4.217388893459793E+002	-3.6135140E-001	-3.6156884E-001	-1.005993986994630E-002	2.000000000000000E+000	-6.3278267E-006	3.6373608E-006
2	0	0	1	1	4.217422893458934E+002	-3.6475006E-001	-3.6495209E-001	-9.992888984318882E-003	2.000000000000000E+000	-6.3620155E-006	3.6469257E-006
2	0	0	0	1	4.217456893458075E+002	-3.6814877E-001	-3.6834690E-001	-9.925089766450887E-003	2.000000000000000E+000	-6.3959542E-006	3.6558761E-006
2	0	0	0	1	4.217488893457266E+002	-3.7134761E-001	-3.7155682E-001	-9.861179434786482E-003	2.000000000000000E+000	-6.4276901E-006	3.6639885E-006
2	0	0	1	1	4.217522893456407E+002	-3.7474626E-001	-3.7495977E-001	-9.814559592511291E-003	2.000000000000000E+000	-6.4612373E-006	3.6800650E-006
2	0	0	0	1	4.217556893455549E+002	-3.7814498E-001	-3.7834257E-001	-9.727766468859034E-003	2.000000000000000E+000	-6.4945430E-006	3.6804281E-006
2	0	0	0	1	4.217588893454740E+002	-3.8134375E-001	-3.8157368E-001	-9.706903524784150E-003	2.000000000000000E+000	-6.5257200E-006	3.7038990E-006
2	0	0	1	1	4.217622893453881E+002	-3.8474247E-001	-3.8499066E-001	-9.659050036134421E-003	2.000000000000000E+000	-6.5587301E-006	3.7186442E-006
2	0	0	0	1	4.217656893453022E+002	-3.8814116E-001	-3.8837323E-001	-9.616549958567089E-003	2.000000000000000E+000	-6.5915760E-006	3.7348104E-006
2	0	0	0	1	4.217688893452214E+002	-3.9133996E-001	-3.9157018E-001	-9.556771373354436E-003	2.000000000000000E+000	-6.6223292E-006	3.7421466E-006
2	0	0	1	1	4.217722893451355E+002	-3.9473861E-001	-3.9497706E-001	-9.532120196126939E-003	2.000000000000000E+000	-6.6548696E-006	3.7649688E-006
2	0	0	0	1	4.217756893450496E+002	-3.9813733E-001	-3.9838299E-001	-9.485627418143822E-003	2.000000000000000E+000	-6.6872772E-006	3.7789125E-006
2	0	0	0	1	4.217788893449688E+002	-4.0133610E-001	-4.0157014E-001	-9.452737871470135E-003	2.000000000000000E+000	-6.7176547E-006	3.7959373E-006
2	0	0	1	1	4.217822893448829E+002	-4.0473482E-001	-4.0495402E-001	-9.423790293173279E-003	2.000000000000000E+000	-6.7498463E-006	3.8162016E-006
2	0	0	0	1	4.217856893447970E+002	-4.0813351E-001	-4.0833780E-001	-9.364672723252920E-003	2.000000000000000E+000	-6.7818728E-006	3.8239500E-006
2	0	0	0	1	4.217888893447162E+002	-4.1133231E-001	-4.1155931E-001	-9.348018737182412E-003	2.000000000000000E+000	-6.8118966E-006	3.8472640E-006
2	0	0	1	1	4.217922893446303E+002	-4.1473100E-001	-4.1495475E-001	-9.296021527855677E-003	2.000000000000000E+000	-6.8436793E-006	3.8574285E-006
2	0	0	0	1	4.217956893445444E+002	-4.1812971E-001	-4.1835424E-001	-9.263450011349039E-003	2.000000000000000E+000	-6.8753079E-006	3.8754038E-006
2	0	0	0	1	4.217988893444635E+002	-4.2132849E-001	-4.2155373E-001	-9.206544656262840E-003	2.000000000000000E+000	-6.9049411E-006	3.8810531E-006
2	0	0	1	1	4.218022893443776E+002	-4.2472720E-001	-4.2495239E-001	-9.209252870156571E-003	2.000000000000000E+000	-6.9363387E-006	3.9134939E-006
2	0	0	0	1	4.218056893442918E+002	-4.2812592E-001	-4.2833459E-001	-9.198052080925362E-003	2.000000000000000E+000	-6.9677039E-006	3.9398437E-006
2	0	0	0	1	4.218088893442109E+002	-4.3132469E-001	-4.3154541E-001	-9.185123178334219E-003	2.000000000000000E+000	-6.9971939E-006	3.9637976E-006
2	0	0	1	1	4.218122893441250E+002	-4.3472344E-001	-4.3494451E-001	-9.153237573627827E-003	2.000000000000000E+000	-7.0284536E-006	3.9811503E-006
2	0	0	0	1	4.218155893440417E+002	-4.3807930E-001	-4.3829179E-001	-9.142557950456515E-003	2.000000000000000E+000	-7.0587107E-006	4.0071081E-006
2	0	0	0	1	4.218188893439583E+002	-4.4138756E-001	-4.4161177E-001	-9.120653245978841E-003	2.000000000000000E+000	-7.0889341E-006	4.0277878E-006
2	0	0	1	1	4.218222893438724E+002	-4.4478622E-001	-4.4502002E-001	-9.103986438276469E-003	2.000000000000000E+000	-7.1200002E-006	4.0514560E-006
2	0	0	1	1	4.218254893437916E+002	-4.4798499E-001	-4.4818366E-001	-9.092582428032379E-003	2.000000000000000E+000	-7.1492004E-006	4.0751470E-006
2	0	0	0	1	4.218288893437057E+002	-4.5138371E-001	-4.5157266E-001	-9.082348237946777E-003	2.000000000000000E+000	-7.1801951E-006	4.1013400E-006
2	0	0	1	1	4.218322893436198E+002	-4.5478240E-001	-4.5496815E-001	-9.059692970852989E-003	2.000000000000000E+000	-7.2111088E-006	4.1218718E-006
2	0	0	1	1	4.218354893435389E+002	-4.5798117E-001	-4.5819020E-001	-9.053883415314601E-003	2.000000000000000E+000	-7.2401813E-006	4.1484009E-006
2	0	0	0	1	4.218388893434530E+002	-4.6137992E-001	-4.6158722E-001	-9.069138862529746E-003	2.000000000000000E+000	-7.2710891E-006	4.1861986E-006
2	0	0	1	1	4.218422893433672E+002	-4.6477860E-001	-4.6498939E-001	-9.056451713513500E-003	2.000000000000000E+000	-7.3019801E-006	4.2111542E-006
2	0	0	1	1	4.218454893432863E+002	-4.6797740E-001	-4.6820468E-001	-9.055396318217321E-003	2.000000000000000E+000	-7.3310380E-006	4.2397787E-006
2	0	0	0	1	4.218488893432004E+002	-4.7137606E-001	-4.7159863E-001	-9.076411039192558E-003	2.000000000000000E+000	-7.3619690E-006	4.2804231E-006
2	0	0	1	1	4.218522893431145E+002	-4.7477478E-001	-4.7499138E-001	-9.044398770978040E-003	2.000000000000000E+000	-7.3928572E-006	4.2960114E-006
2	0	0	1	1	4.218554893430337E+002	-4.7797355E-001	-4.7819912E-001	-9.066202795111167E-003	2.000000000000000E+000	-7.4219170E-006	4.3354503E-006
2	0	0	0	1	4.218588893429478E+002	-4.8137227E-001	-4.8161054E-001	-9.045327199601161E-003	2.000000000000000E+000	-7.4527979E-006	4.3563250E-006
2	0	0	1	1	4.218622893428619E+002	-4.8477098E-001	-4.8499313E-001	-9.063660101855935E-003	2.000000000000000E+000	-7.4836685E-006	4.3958130E-006
2	0	0	1	1	4.218654893427811E+002	-4.8796976E-001	-4.8820242E-001	-9.042937026363967E-003	2.000000000000000E+000	-7.5127277E-006	4.4147837E-006
2	0	0	0	1	4.218688893426952E+002	-4.9136847E-001	-4.9159887E-001	-9.051772020757201E-003	2.000000000000000E+000	-7.5435869E-006	4.4498411E-006
2	0	0	1	1	4.218722893426093E+002	-4.9476722E-001	-4.9498621E-001	-9.055549024075515E-003	2.000000000000000E+000	-7.5744460E-006	4.4823719E-006
2	0	0	1	1	4.218754893425285E+002	-4.9796602E-001	-4.9819723E-001	-9.076818572672590E-003	2.000000000000000E+000	-7.6035417E-006	4.5220459E-006
2	0	0	0	1	4.218788893424426E+002	-5.0136471E-001	-5.0158703E-001	-9.090993522780384E-003	2.000000000000000E+000	-7.6345214E-006	4.5599245E-006
2	0	0	1	1	4.218822893423567E+002	-5.0476336E-001	-5.0499743E-001	-9.089887056325054E-003	2.000000000000000E+000	-7.6655215E-006	4.5903698E-006
2	0	0	1	1	4.218854893422758E+002	-5.0796217E-001	-5.0819963E-001	-9.097490208538755E-003	2.000000000000000E+000	-7.6947017E-006	4.6233413E-006
2	0	0	0	1	4.218888893421899E+002	-5.1136082E-001	-5.1157796E-001	-9.110380836985621E-003	2.000000000000000E+000	-7.7257464E-006	4.6606701E-006
2	0	0	1	1	4.218922893421041E+002	-5.1475960E-001	-5.1498473E-001	-9.152195488968548E-003	2.000000000000000E+000	-7.7568839E-006	4.7132407E-006
2	0	0	1	1	4.218954893420232E+002	-5.1795834E-001	-5.1817960E-001	-9.150809629378856E-003	2.000000000000000E+000	-7.7862514E-006	4.7417630E-006
2	0	0	0	1	4.218988893419373E+002	-5.2135706E-001	-5.2157599E-001	-9.178054288410412E-003	2.000000000000000E+000	-7.8175062E-006	4.7870526E-006
2	0	0	1	1	4.219022893418514E+002	-5.2475578E-001	-5.2498531E-001	-9.193628153964961E-003	2.000000000000000E+000	-7.8488256E-006	4.8265197E-006
2	0	0	1	1	4.219054893417706E+002	-5.2795452E-001	-5.2817851E-001	-9.200556894393197E-003	2.000000000000000E+000	-7.8783341E-006	4.8595366E-006
2	0	0	0	1	4.219088893416847E+002	-5.3135324E-001	-5.3156078E-001	-9.227407275344969E-003	2.000000000000000E+000	-7.9097554E-006	4.9049277E-006
2	0	0	1	1	4.219122893415988E+002	-5.3475189E-001	-5.3497171E-001	-9.243692557659722E-003	2.000000000000000E+000	-7.9412321E-006	4.9451141E-006
2	0	0	1	1	4.219154893415180E+002	-5.3795069E-001	-5.3816283E-001	-9.275793943379518E-003	2.000000000000000E+000	-7.9709471E-006	4.9918876E-006
2	0	0	0	1	4.219188893414321E+002	-5.4134941E-001	-5.4157621E-001	-9.334275268399014E-003	2.000000000000000E+000	-8.0026730E-006	5.0552212E-006
2	0	0	1	1	4.219222893413462E+002	-5.4474813E-001	-5.4495555E-001	-9.364431517557642E-003	2.000000000000000E+000	-8.0345462E-006	5.1031989E-006
2	0	0	1	1	4.219254893412653E+002	-5.4794693E-001	-5.4815805E-001	-9.374767290743546E-003	2.000000000000000E+000	-8.0646141E-006	5.1388542E-006
2	0	0	0	1	4.219288893411795E+002	-5.5134559E-001	-5.5156350E-001	-9.393290840732010E-003	2.000000000000000E+000	-8.0966120E-006	5.1809966E-006
2	0	0	1	1	4.219322893410936E+002	-5.5474430E-001	-5.5498737E-001	-9.462031773667445E-003	2.000000000000000E+000	-8.1287571E-006	5.2513083E-006
2	0	0	1	1	4.219354893410127E+002	-5.5794305E-001	-5.5817550E-001	-9.480834676954403E-003	2.000000000000000E+000	-8.1591452E-006	5.2919695E-006
2	0	0	0	1	4.219388893409268E+002	-5.6134170E-001	-5.6157064E-001	-9.518008765432261E-003	2.000000000000000E+000	-8.1915459E-006	5.3450344E-006
2	0	0	1	1	4.219422893408409E+002	-5.6474048E-001	-5.6497627E-001	-9.587932144252881E-003	2.000000000000000E+000	-8.2241331E-006	5.4169541E-006
2	0	0	1	1	4.219454893407601E+002	-5.6793928E-001	-5.6819046E-001	-9.642280583405688E-003	2.000000000000000E+000	-8.2549877E-006	5.4786519E-006
2	0	0	0	1	4.219488893406742E+002	-5.7133800E-001	-5.7157570E-001	-9.683231585707552E-003	2.000000000000000E+000	-8.2879433E-006	5.5347000E-006
2	0	0	1	1	4.219522893405883E+002	-5.7473671E-001	-5.7497495E-001	-9.720862622998511E-003	2.000000000000000E+000	-8.3210143E-006	5.5892524E-006
2	0	0	1	1	4.219554893405075E+002	-5.7793552E-001	-5.7815850E-001	-9.755913399203564E-003	2.000000000000000E+000	-8.3522627E-006	5.6404642E-006
2	0	0	0	1	4.219588893404216E+002	-5.8133417E-001	-5.8155495E-001	-9.813237666821795E-003	2.000000000000000E+000	-8.3856348E-006	5.7069369E-006
2	0	0	1	1	4.219622893403357E+002	-5.8473283E-001	-5.8494973E-001	-9.893966690772985E-003	2.000000000000000E+000	-8.4192261E-006	5.7874731E-006
2	0	0	1	1	4.219654893402549E+002	-5.8793163E-001	-5.8815438E-001	-9.961029580396519E-003	2.000000000000000E+000	-8.4510830E-006	5.8586234E-006
2	0	0	0	1	4.219688893401690E+002	-5.9133029E-001	-5.9154630E-001	-1.002221934989696E-002	2.000000000000000E+000	-8.4851581E-006	5.9286067E-006
2	0	0	1	1	4.219722893400831E+002	-5.9472901E-001	-5.9493047E-001	-1.010287159903477E-002	2.000000000000000E+000	-8.5194561E-006	6.0105062E-006
2	0	0	1	1	4.219754893400022E+002	-5.9792781E-001	-5.9815305E-001	-1.016587931020090E-002	2.000000000000000E+000	-8.5519750E-006	6.0807520E-006
2	0	0	0	1	4.219773893399542E+002	-5.9982693E-001	-6.0005414E-001	-1.022174023091793E-002	2.000000000000000E+000	-8.5713673E-006	6.1335977E-006