EC-Lab ASCII FILE
Nb header lines : 53                          

Cyclic Voltammetry

Run on channel : 1 (SN 0696)
User : 
Electrode connection : standard
Ewe ctrl range : min = -10.00 V, max = 10.00 V
Ewe,I filtering : 50 kHz
Channel : Grounded
Acquisition started on : 05/17/2017 12:39:23
Saved on :
	File : 100 uM MB 10mM PB  second ito_05_CV_C01.mpr
	Directory : \\userfs\st659\w2k\EC-Lab\Data\ITO Characterisation 17-5-17\
	Host : 144.32.136.43
Device : SP-300 (SN 0182)
Address : USB
EC-Lab for windows v10.44 (software)
Internet server v10.44 (firmware)
Command interpretor v10.44 (firmware)
Electrode material : 
Initial state : 
Electrolyte : 
Comments : 
Cable : standard
Electrode surface area : 0.001 cm²
Characteristic mass : 0.001 g
Equivalent Weight : 0.000 g/eq.
Density : 0.000 g/cm3
Ei (V)              0.000               
vs.                 Eoc                 
dE/dt               500.000             
dE/dt unit          mV/s                
E1 (V)              0.100               
vs.                 Ref                 
Step percent        50                  
N                   10                  
E range min (V)     -10.000             
E range max (V)     10.000              
I Range             Auto                
I Range min         Unset               
I Range max         Unset               
I Range init        Unset               
Bandwidth           8                   
E2 (V)              -0.600              
vs.                 Ref                 
nc cycles           2                   
Reverse Scan        1                   
Ef (V)              0.000               
vs.                 Eoc                 

mode	ox/red	error	control changes	counter inc.	time/s	control/V	Ewe/V	<I>/mA	cycle number	(Q-Qo)/C	P/W
2	1	0	1	1	4.117647895979462E+002	-6.0016018E-001	-6.0037464E-001	-8.528289385139942E-003	2.000000000000000E+000	-7.9006522E-006	5.1201687E-006
2	1	0	0	1	4.117683895978553E+002	-5.9832764E-001	-5.9855795E-001	-7.480287270906688E-003	2.000000000000000E+000	-7.9279062E-006	4.4773856E-006
2	1	0	1	1	4.117749895976885E+002	-5.9502894E-001	-5.9525108E-001	-6.542527001086741E-003	2.000000000000000E+000	-7.9737756E-006	3.8944463E-006
2	1	0	1	1	4.117817895975168E+002	-5.9163022E-001	-5.9184706E-001	-6.078857301448179E-003	2.000000000000000E+000	-8.0163982E-006	3.5977539E-006
2	1	0	0	1	4.117883895973500E+002	-5.8833146E-001	-5.8853894E-001	-5.779531981534081E-003	2.000000000000000E+000	-8.0553027E-006	3.4014797E-006
2	1	0	1	1	4.117949895971833E+002	-5.8503270E-001	-5.8523941E-001	-5.544832685761031E-003	2.000000000000000E+000	-8.0924528E-006	3.2450546E-006
2	1	0	1	1	4.118017895970115E+002	-5.8163399E-001	-5.8183181E-001	-5.325650873904415E-003	2.000000000000000E+000	-8.1291846E-006	3.0986332E-006
2	1	0	0	1	4.118083895968448E+002	-5.7833529E-001	-5.7854098E-001	-5.159613537337765E-003	2.000000000000000E+000	-8.1635826E-006	2.9850478E-006
2	1	0	1	1	4.118149895966781E+002	-5.7503653E-001	-5.7523626E-001	-4.995288195156405E-003	2.000000000000000E+000	-8.1968865E-006	2.8734710E-006
2	1	0	1	1	4.118217895965063E+002	-5.7163787E-001	-5.7185179E-001	-4.856542280564702E-003	2.000000000000000E+000	-8.2301740E-006	2.7772223E-006
2	1	0	0	1	4.118283895963395E+002	-5.6833911E-001	-5.6857193E-001	-4.715994612646088E-003	2.000000000000000E+000	-8.2615643E-006	2.6813821E-006
2	1	0	1	1	4.118349895961728E+002	-5.6504041E-001	-5.6526738E-001	-4.586459727336956E-003	2.000000000000000E+000	-8.2920578E-006	2.5925760E-006
2	1	0	1	1	4.118417895960010E+002	-5.6164163E-001	-5.6183743E-001	-4.470661706424531E-003	2.000000000000000E+000	-8.3226359E-006	2.5117852E-006
2	1	0	0	1	4.118483895958343E+002	-5.5834293E-001	-5.5855757E-001	-4.368595770029045E-003	2.000000000000000E+000	-8.3516070E-006	2.4401122E-006
2	1	0	1	1	4.118549895956676E+002	-5.5504417E-001	-5.5526525E-001	-4.259128917631930E-003	2.000000000000000E+000	-8.3798795E-006	2.3649463E-006
2	1	0	1	1	4.118617895954958E+002	-5.5164546E-001	-5.5184633E-001	-4.154478150000286E-003	2.000000000000000E+000	-8.4082858E-006	2.2926336E-006
2	1	0	0	1	4.118683895953291E+002	-5.4834670E-001	-5.4854137E-001	-4.064030799418097E-003	2.000000000000000E+000	-8.4352132E-006	2.2292891E-006
2	1	0	1	1	4.118749895951623E+002	-5.4504794E-001	-5.4524630E-001	-3.978402853499576E-003	2.000000000000000E+000	-8.4615558E-006	2.1692094E-006
2	1	0	1	1	4.118817895949906E+002	-5.4164928E-001	-5.4183149E-001	-3.882423839422694E-003	2.000000000000000E+000	-8.4880894E-006	2.1036194E-006
2	1	0	0	1	4.118883895948238E+002	-5.3835058E-001	-5.3853166E-001	-3.807599962844202E-003	2.000000000000000E+000	-8.5132870E-006	2.0505131E-006
2	1	0	1	1	4.118949895946571E+002	-5.3505182E-001	-5.3523976E-001	-3.730970834415835E-003	2.000000000000000E+000	-8.5379761E-006	1.9969639E-006
2	1	0	1	1	4.119017895944853E+002	-5.3165311E-001	-5.3186524E-001	-3.660670167422123E-003	2.000000000000000E+000	-8.5629035E-006	1.9469833E-006
2	1	0	0	1	4.119083895943186E+002	-5.2835435E-001	-5.2856296E-001	-3.588425954937215E-003	2.000000000000000E+000	-8.5866386E-006	1.8967090E-006
2	1	0	1	1	4.119149895941518E+002	-5.2504450E-001	-5.2525878E-001	-3.518715629009739E-003	2.000000000000000E+000	-8.6099017E-006	1.8482363E-006
2	1	0	0	1	4.119215895939851E+002	-5.2172357E-001	-5.2193236E-001	-3.451048976785380E-003	2.000000000000000E+000	-8.6327045E-006	1.8012141E-006
2	1	0	0	1	4.119283895938133E+002	-5.1832491E-001	-5.1849949E-001	-3.380335986791272E-003	2.000000000000000E+000	-8.6557293E-006	1.7527025E-006
2	1	0	1	1	4.119349895936466E+002	-5.1502615E-001	-5.1522338E-001	-3.319368437587395E-003	2.000000000000000E+000	-8.6776572E-006	1.7102162E-006
2	1	0	0	1	4.119415895934799E+002	-5.1172739E-001	-5.1192671E-001	-3.265690389343941E-003	2.000000000000000E+000	-8.6991950E-006	1.6717942E-006
2	1	0	0	1	4.119483895933081E+002	-5.0832874E-001	-5.0851977E-001	-3.201459390644826E-003	2.000000000000000E+000	-8.7209810E-006	1.6280054E-006
2	1	0	1	1	4.119549895931414E+002	-5.0502998E-001	-5.0523591E-001	-3.147289220942179E-003	2.000000000000000E+000	-8.7417466E-006	1.5901236E-006
2	1	0	0	1	4.119615895929746E+002	-5.0173122E-001	-5.0193918E-001	-3.090400255950945E-003	2.000000000000000E+000	-8.7621356E-006	1.5511930E-006
2	1	0	0	1	4.119683895928029E+002	-4.9833250E-001	-4.9853083E-001	-3.033537657211088E-003	2.000000000000000E+000	-8.7827575E-006	1.5123121E-006
2	1	0	1	1	4.119749895926361E+002	-4.9503377E-001	-4.9522385E-001	-2.981884267834786E-003	2.000000000000000E+000	-8.8024190E-006	1.4767002E-006
2	1	0	0	1	4.119815895924694E+002	-4.9173501E-001	-4.9193767E-001	-2.934924664108017E-003	2.000000000000000E+000	-8.8217512E-006	1.4438000E-006
2	1	0	0	1	4.119883895922976E+002	-4.8833629E-001	-4.8854730E-001	-2.884399360179177E-003	2.000000000000000E+000	-8.8413317E-006	1.4091655E-006
2	1	0	1	1	4.119949895921309E+002	-4.8503757E-001	-4.8523337E-001	-2.833396786324258E-003	2.000000000000000E+000	-8.8600173E-006	1.3748587E-006
2	1	0	0	1	4.120015895919641E+002	-4.8173881E-001	-4.8194048E-001	-2.788055730373638E-003	2.000000000000000E+000	-8.8783754E-006	1.3436769E-006
2	1	0	0	1	4.120083895917924E+002	-4.7834012E-001	-4.7853744E-001	-2.736059835933710E-003	2.000000000000000E+000	-8.8969582E-006	1.3093071E-006
2	1	0	1	1	4.120149895916256E+002	-4.7504136E-001	-4.7524118E-001	-2.687342982972036E-003	2.000000000000000E+000	-8.9146670E-006	1.2771361E-006
2	1	0	0	1	4.120215895914589E+002	-4.7174263E-001	-4.7194025E-001	-2.648011101609872E-003	2.000000000000000E+000	-8.9320811E-006	1.2497030E-006
2	1	0	0	1	4.120283895912871E+002	-4.6834391E-001	-4.6853170E-001	-2.600322912015444E-003	2.000000000000000E+000	-8.9497253E-006	1.2183338E-006
2	1	0	1	1	4.120349895911204E+002	-4.6504515E-001	-4.6522024E-001	-2.549503115217996E-003	2.000000000000000E+000	-8.9665336E-006	1.1860805E-006
2	1	0	0	1	4.120415895909537E+002	-4.6174642E-001	-4.6191832E-001	-2.512942321997494E-003	2.000000000000000E+000	-8.9830501E-006	1.1607741E-006
2	1	0	0	1	4.120483895907819E+002	-4.5834771E-001	-4.5853025E-001	-2.470083977429260E-003	2.000000000000000E+000	-8.9997939E-006	1.1326082E-006
2	1	0	1	1	4.120549895906152E+002	-4.5504898E-001	-4.5520255E-001	-2.424815505310110E-003	2.000000000000000E+000	-9.0157591E-006	1.1037822E-006
2	1	0	0	1	4.120615895904484E+002	-4.5175022E-001	-4.5192066E-001	-2.386273844300981E-003	2.000000000000000E+000	-9.0314425E-006	1.0784064E-006
2	1	0	0	1	4.120683895902766E+002	-4.4835153E-001	-4.4852898E-001	-2.344068106231133E-003	2.000000000000000E+000	-9.0473286E-006	1.0513825E-006
2	1	0	1	1	4.120749895901099E+002	-4.4505277E-001	-4.4523519E-001	-2.307389118110809E-003	2.000000000000000E+000	-9.0624953E-006	1.0273309E-006
2	1	0	0	1	4.120815895899432E+002	-4.4175407E-001	-4.4194770E-001	-2.265908567157259E-003	2.000000000000000E+000	-9.0773965E-006	1.0014131E-006
2	1	0	0	1	4.120882895897739E+002	-4.3840015E-001	-4.3858984E-001	-2.225774337728506E-003	2.000000000000000E+000	-9.0922522E-006	9.7620205E-007
2	1	0	1	1	4.120949895896047E+002	-4.3502334E-001	-4.3520057E-001	-2.177946322929836E-003	2.000000000000000E+000	-9.1068068E-006	9.4784349E-007
2	1	0	0	1	4.121015895894379E+002	-4.3172458E-001	-4.3191969E-001	-2.143087339421375E-003	2.000000000000000E+000	-9.1208913E-006	9.2564164E-007
2	1	0	1	1	4.121081895892712E+002	-4.2842579E-001	-4.2861256E-001	-2.111001897659053E-003	2.000000000000000E+000	-9.1347456E-006	9.0480194E-007
2	1	0	1	1	4.121149895890994E+002	-4.2502710E-001	-4.2523706E-001	-2.073561500492351E-003	2.000000000000000E+000	-9.1487736E-006	8.8175517E-007
2	1	0	0	1	4.121215895889327E+002	-4.2172834E-001	-4.2193070E-001	-2.032786592220257E-003	2.000000000000000E+000	-9.1621387E-006	8.5769506E-007
2	1	0	1	1	4.121281895887660E+002	-4.1842964E-001	-4.1864601E-001	-1.998072960092634E-003	2.000000000000000E+000	-9.1752490E-006	8.3648524E-007
2	1	0	1	1	4.121349895885942E+002	-4.1503090E-001	-4.1521728E-001	-1.957676404981613E-003	2.000000000000000E+000	-9.1884995E-006	8.1286106E-007
2	1	0	0	1	4.121415895884275E+002	-4.1173214E-001	-4.1193649E-001	-1.920658883561072E-003	2.000000000000000E+000	-9.2011096E-006	7.9118951E-007
2	1	0	1	1	4.121481895882607E+002	-4.0843344E-001	-4.0861991E-001	-1.886027557914831E-003	2.000000000000000E+000	-9.2134751E-006	7.7066841E-007
2	1	0	1	1	4.121549895880889E+002	-4.0503475E-001	-4.0524358E-001	-1.848168505118031E-003	2.000000000000000E+000	-9.2259779E-006	7.4895843E-007
2	1	0	0	1	4.121615895879222E+002	-4.0173596E-001	-4.0194625E-001	-1.813951984452914E-003	2.000000000000000E+000	-9.2378823E-006	7.2911121E-007
2	1	0	1	1	4.121681895877555E+002	-3.9843726E-001	-3.9864129E-001	-1.777419342094307E-003	2.000000000000000E+000	-9.2495357E-006	7.0855276E-007
2	1	0	1	1	4.121749895875837E+002	-3.9503855E-001	-3.9525694E-001	-1.736941402456667E-003	2.000000000000000E+000	-9.2612900E-006	6.8653816E-007
2	1	0	0	1	4.121815895874170E+002	-3.9173979E-001	-3.9194873E-001	-1.700012154954796E-003	2.000000000000000E+000	-9.2724540E-006	6.6631759E-007
2	1	0	1	1	4.121881895872502E+002	-3.8844109E-001	-3.8864222E-001	-1.667314736672174E-003	2.000000000000000E+000	-9.2833707E-006	6.4798888E-007
2	1	0	1	1	4.121949895870785E+002	-3.8504234E-001	-3.8526177E-001	-1.631197369624714E-003	2.000000000000000E+000	-9.2943892E-006	6.2843799E-007
2	1	0	0	1	4.122015895869117E+002	-3.8174361E-001	-3.8193992E-001	-1.590880528647171E-003	2.000000000000000E+000	-9.3048402E-006	6.0762079E-007
2	1	0	1	1	4.122081895867450E+002	-3.7844488E-001	-3.7861732E-001	-1.554943038566606E-003	2.000000000000000E+000	-9.3150329E-006	5.8872837E-007
2	1	0	1	1	4.122149895865732E+002	-3.7504616E-001	-3.7522361E-001	-1.521787221948515E-003	2.000000000000000E+000	-9.3253075E-006	5.7101050E-007
2	1	0	0	1	4.122215895864065E+002	-3.7174740E-001	-3.7192467E-001	-1.486308357395195E-003	2.000000000000000E+000	-9.3350482E-006	5.5279475E-007
2	1	0	1	1	4.122281895862398E+002	-3.6844867E-001	-3.6860624E-001	-1.448306074432058E-003	2.000000000000000E+000	-9.3445351E-006	5.3385463E-007
2	1	0	1	1	4.122349895860680E+002	-3.6504996E-001	-3.6523190E-001	-1.416426783422749E-003	2.000000000000000E+000	-9.3540812E-006	5.1732422E-007
2	1	0	0	1	4.122415895859012E+002	-3.6175120E-001	-3.6195254E-001	-1.380377082781097E-003	2.000000000000000E+000	-9.3631261E-006	4.9963097E-007
2	1	0	1	1	4.122481895857345E+002	-3.5845247E-001	-3.5863370E-001	-1.343122323260100E-003	2.000000000000000E+000	-9.3719191E-006	4.8168891E-007
2	1	0	1	1	4.122549895855627E+002	-3.5505375E-001	-3.5525551E-001	-1.306702905079268E-003	2.000000000000000E+000	-9.3807303E-006	4.6421340E-007
2	1	0	0	1	4.122615895853960E+002	-3.5175502E-001	-3.5195753E-001	-1.269078152381552E-003	2.000000000000000E+000	-9.3890494E-006	4.4666160E-007
2	1	0	1	1	4.122681895852293E+002	-3.4842297E-001	-3.4860349E-001	-1.221129558431736E-003	2.000000000000000E+000	-9.3970721E-006	4.2569002E-007
2	1	0	0	1	4.122747895850625E+002	-3.4512421E-001	-3.4532225E-001	-1.193205938231278E-003	2.000000000000000E+000	-9.4048492E-006	4.1204055E-007
2	1	0	0	1	4.122815895848908E+002	-3.4172553E-001	-3.4191197E-001	-1.154132562805896E-003	2.000000000000000E+000	-9.4126362E-006	3.9461173E-007
2	1	0	1	1	4.122881895847240E+002	-3.3842677E-001	-3.3859918E-001	-1.113603734893331E-003	2.000000000000000E+000	-9.4199359E-006	3.7706531E-007
2	1	0	0	1	4.122947895845573E+002	-3.3512804E-001	-3.3528456E-001	-1.075531805599890E-003	2.000000000000000E+000	-9.4269599E-006	3.6060922E-007
2	1	0	0	1	4.123015895843855E+002	-3.3172932E-001	-3.3188862E-001	-1.034168501018937E-003	2.000000000000000E+000	-9.4339393E-006	3.4322875E-007
2	1	0	1	1	4.123081895842188E+002	-3.2843059E-001	-3.2858834E-001	-9.965746522842276E-004	2.000000000000000E+000	-9.4404577E-006	3.2746280E-007
2	1	0	0	1	4.123147895840521E+002	-3.2513183E-001	-3.2526746E-001	-9.553957027189103E-004	2.000000000000000E+000	-9.4467032E-006	3.1075913E-007
2	1	0	0	1	4.123215895838803E+002	-3.2173312E-001	-3.2187840E-001	-9.131601407261752E-004	2.000000000000000E+000	-9.4528614E-006	2.9392652E-007
2	1	0	1	1	4.123281895837135E+002	-3.1843439E-001	-3.1860900E-001	-8.756094704343324E-004	2.000000000000000E+000	-9.4585821E-006	2.7897707E-007
2	1	0	0	1	4.123347895835468E+002	-3.1513566E-001	-3.1529129E-001	-8.277947723096643E-004	2.000000000000000E+000	-9.4640145E-006	2.6099647E-007
2	1	0	0	1	4.123415895833750E+002	-3.1173694E-001	-3.1188244E-001	-7.851152374087167E-004	2.000000000000000E+000	-9.4693032E-006	2.4486366E-007
2	1	0	1	1	4.123481895832083E+002	-3.0843821E-001	-3.0859709E-001	-7.354114004025740E-004	2.000000000000000E+000	-9.4741372E-006	2.2694582E-007
2	1	0	0	1	4.123547895830416E+002	-3.0513948E-001	-3.0530268E-001	-6.903367010333249E-004	2.000000000000000E+000	-9.4786492E-006	2.1076164E-007
2	1	0	0	1	4.123615895828698E+002	-3.0174074E-001	-3.0190146E-001	-6.464368315619116E-004	2.000000000000000E+000	-9.4829948E-006	1.9516023E-007
2	1	0	1	1	4.123681895827031E+002	-2.9844201E-001	-2.9860890E-001	-5.931467695518174E-004	2.000000000000000E+000	-9.4868974E-006	1.7711891E-007
2	1	0	0	1	4.123747895825363E+002	-2.9514328E-001	-2.9528582E-001	-5.365241715556599E-004	2.000000000000000E+000	-9.4904299E-006	1.5842798E-007
2	1	0	0	1	4.123815895823645E+002	-2.9174456E-001	-2.9188448E-001	-4.806370857598549E-004	2.000000000000000E+000	-9.4937013E-006	1.4029051E-007
2	1	0	1	1	4.123881895821978E+002	-2.8844583E-001	-2.8858849E-001	-4.291693557282373E-004	2.000000000000000E+000	-9.4965208E-006	1.2385334E-007
2	1	0	0	1	4.123947895820311E+002	-2.8514707E-001	-2.8527898E-001	-3.722152091919862E-004	2.000000000000000E+000	-9.4989718E-006	1.0618518E-007
2	1	0	0	1	4.124015895818593E+002	-2.8174835E-001	-2.8187153E-001	-3.118448931256038E-004	2.000000000000000E+000	-9.5010982E-006	8.7900197E-008
2	1	0	1	1	4.124081895816926E+002	-2.7844962E-001	-2.7857691E-001	-2.505718162221141E-004	2.000000000000000E+000	-9.5027635E-006	6.9803519E-008
2	1	0	0	1	4.124147895815258E+002	-2.7515087E-001	-2.7529216E-001	-1.922266586764938E-004	2.000000000000000E+000	-9.5040232E-006	5.2918491E-008
2	1	0	0	1	4.124215895813541E+002	-2.7175218E-001	-2.7190101E-001	-1.210306115581260E-004	2.000000000000000E+000	-9.5048854E-006	3.2908346E-008
2	1	0	1	1	4.124281895811873E+002	-2.6845345E-001	-2.6860037E-001	-4.887810474158978E-005	2.000000000000000E+000	-9.5052592E-006	1.3128677E-008
2	1	0	0	1	4.124347895810206E+002	-2.6515472E-001	-2.6530060E-001	2.575633865207951E-005	2.000000000000000E+000	-9.5051419E-006	6.8331723E-009
2	1	0	0	1	4.124414895808513E+002	-2.6178932E-001	-2.6193178E-001	1.056993743040085E-004	2.000000000000000E+000	-9.5045143E-006	2.7686024E-008
2	1	0	1	1	4.124481895806821E+002	-2.5842395E-001	-2.5857696E-001	1.845041140844238E-004	2.000000000000000E+000	-9.5033420E-006	4.7708514E-008
2	1	0	0	1	4.124547895805154E+002	-2.5512519E-001	-2.5528401E-001	2.625311812721517E-004	2.000000000000000E+000	-9.5016767E-006	6.7020011E-008
2	1	0	1	1	4.124613895803486E+002	-2.5182647E-001	-2.5199586E-001	3.476922135215929E-004	2.000000000000000E+000	-9.4994712E-006	8.7616996E-008
2	1	0	1	1	4.124681895801768E+002	-2.4842775E-001	-2.4858859E-001	4.381858919941823E-004	2.000000000000000E+000	-9.4965935E-006	1.0892801E-007
2	1	0	0	1	4.124747895800101E+002	-2.4512900E-001	-2.4531147E-001	5.327253554090338E-004	2.000000000000000E+000	-9.4931947E-006	1.3068365E-007
2	1	0	1	1	4.124813895798434E+002	-2.4183026E-001	-2.4198802E-001	6.313691732051071E-004	2.000000000000000E+000	-9.4891466E-006	1.5278377E-007
2	1	0	1	1	4.124881895796716E+002	-2.3843156E-001	-2.3857878E-001	7.408146295953613E-004	2.000000000000000E+000	-9.4842753E-006	1.7674265E-007
2	1	0	0	1	4.124947895795049E+002	-2.3513281E-001	-2.3529212E-001	8.386727140835618E-004	2.000000000000000E+000	-9.4788711E-006	1.9733308E-007
2	1	0	1	1	4.125013895793381E+002	-2.3183408E-001	-2.3201647E-001	9.447944221543936E-004	2.000000000000000E+000	-9.4727839E-006	2.1920788E-007
2	1	0	1	1	4.125081895791664E+002	-2.2843538E-001	-2.2859912E-001	1.061834398357558E-003	2.000000000000000E+000	-9.4657516E-006	2.4273442E-007
2	1	0	0	1	4.125147895789996E+002	-2.2513664E-001	-2.2532713E-001	1.178531348311180E-003	2.000000000000000E+000	-9.4581656E-006	2.6555509E-007
2	1	0	1	1	4.125213895788329E+002	-2.2183789E-001	-2.2199097E-001	1.296697248138426E-003	2.000000000000000E+000	-9.4497846E-006	2.8785507E-007
2	1	0	1	1	4.125281895786611E+002	-2.1843918E-001	-2.1859990E-001	1.422168162086256E-003	2.000000000000000E+000	-9.4403340E-006	3.1088581E-007
2	1	0	0	1	4.125347895784944E+002	-2.1514043E-001	-2.1531139E-001	1.532142700261828E-003	2.000000000000000E+000	-9.4303841E-006	3.2988777E-007
2	1	0	1	1	4.125413895783277E+002	-2.1184169E-001	-2.1199101E-001	1.668225088057328E-003	2.000000000000000E+000	-9.4196184E-006	3.5364872E-007
2	1	0	1	1	4.125481895781559E+002	-2.0844297E-001	-2.0857164E-001	1.793503582727375E-003	2.000000000000000E+000	-9.4076377E-006	3.7407398E-007
2	1	0	0	1	4.125547895779891E+002	-2.0514424E-001	-2.0529044E-001	1.909482015313799E-003	2.000000000000000E+000	-9.3952212E-006	3.9199838E-007
2	1	0	1	1	4.125613895778224E+002	-2.0184550E-001	-2.0200723E-001	2.036332842150546E-003	2.000000000000000E+000	-9.3819945E-006	4.1135397E-007
2	1	0	1	1	4.125681895776506E+002	-1.9844680E-001	-1.9857651E-001	2.175691316945937E-003	2.000000000000000E+000	-9.3674698E-006	4.3204119E-007
2	1	0	0	1	4.125747895774839E+002	-1.9514805E-001	-1.9529064E-001	2.287636913570167E-003	2.000000000000000E+000	-9.3525405E-006	4.4675409E-007
2	1	0	1	1	4.125813895773172E+002	-1.9184932E-001	-1.9199392E-001	2.415316445330971E-003	2.000000000000000E+000	-9.3368171E-006	4.6372608E-007
2	1	0	1	1	4.125881895771454E+002	-1.8845062E-001	-1.8860349E-001	2.522211565125578E-003	2.000000000000000E+000	-9.3198205E-006	4.7569790E-007
2	1	0	0	1	4.125947895769787E+002	-1.8515188E-001	-1.8532205E-001	2.657079383364677E-003	2.000000000000000E+000	-9.3025274E-006	4.9241538E-007
2	1	0	1	1	4.126013895768119E+002	-1.8185313E-001	-1.8199347E-001	2.778449570693442E-003	2.000000000000000E+000	-9.2843802E-006	5.0565967E-007
2	1	0	1	1	4.126081895766401E+002	-1.7845441E-001	-1.7860776E-001	2.890254284920943E-003	2.000000000000000E+000	-9.2649052E-006	5.1622186E-007
2	1	0	0	1	4.126147895764734E+002	-1.7514457E-001	-1.7528853E-001	2.999243749006092E-003	2.000000000000000E+000	-9.2452765E-006	5.2573301E-007
2	1	0	1	1	4.126213895763067E+002	-1.7182362E-001	-1.7197624E-001	3.103249232905609E-003	2.000000000000000E+000	-9.2249456E-006	5.3368512E-007
2	1	0	0	1	4.126279895761400E+002	-1.6852488E-001	-1.6868353E-001	3.191193458890969E-003	2.000000000000000E+000	-9.2039700E-006	5.3830178E-007
2	1	0	0	1	4.126347895759682E+002	-1.6512616E-001	-1.6525698E-001	3.289966433840184E-003	2.000000000000000E+000	-9.1817210E-006	5.4368991E-007
2	1	0	1	1	4.126413895758014E+002	-1.6182743E-001	-1.6195287E-001	3.377287075454649E-003	2.000000000000000E+000	-9.1595402E-006	5.4696130E-007
2	1	0	0	1	4.126479895756347E+002	-1.5852867E-001	-1.5865496E-001	3.464395715066855E-003	2.000000000000000E+000	-9.1367783E-006	5.4964357E-007
2	1	0	0	1	4.126547895754629E+002	-1.5512998E-001	-1.5524133E-001	3.550703382218976E-003	2.000000000000000E+000	-9.1127276E-006	5.5121592E-007
2	1	0	1	1	4.126613895752962E+002	-1.5183124E-001	-1.5195550E-001	3.629094315571527E-003	2.000000000000000E+000	-9.0888534E-006	5.5146086E-007
2	1	0	0	1	4.126679895751295E+002	-1.4853249E-001	-1.4866847E-001	3.671654334357302E-003	2.000000000000000E+000	-9.0645690E-006	5.4585922E-007
2	1	0	0	1	4.126747895749577E+002	-1.4513378E-001	-1.4526466E-001	3.734022710583901E-003	2.000000000000000E+000	-9.0391750E-006	5.4242150E-007
2	1	0	1	1	4.126813895747910E+002	-1.4183505E-001	-1.4196534E-001	3.770367988605968E-003	2.000000000000000E+000	-9.0142212E-006	5.3526156E-007
2	1	0	0	1	4.126879895746242E+002	-1.3853630E-001	-1.3867195E-001	3.812378212266300E-003	2.000000000000000E+000	-8.9890109E-006	5.2866994E-007
2	1	0	0	1	4.126947895744524E+002	-1.3513760E-001	-1.3525607E-001	3.864511762488615E-003	2.000000000000000E+000	-8.9627219E-006	5.2269866E-007
2	1	0	1	1	4.127013895742857E+002	-1.3183886E-001	-1.3195090E-001	3.873689161446231E-003	2.000000000000000E+000	-8.9369923E-006	5.1113676E-007
2	1	0	0	1	4.127079895741190E+002	-1.2854011E-001	-1.2866685E-001	3.896999716259120E-003	2.000000000000000E+000	-8.9111654E-006	5.0141466E-007
2	1	0	0	1	4.127147895739472E+002	-1.2514141E-001	-1.2524225E-001	3.906396252568816E-003	2.000000000000000E+000	-8.8844590E-006	4.8924585E-007
2	1	0	1	1	4.127213895737805E+002	-1.2184266E-001	-1.2195089E-001	3.909086288452577E-003	2.000000000000000E+000	-8.8584893E-006	4.7671656E-007
2	1	0	0	1	4.127279895736137E+002	-1.1854392E-001	-1.1865157E-001	3.914316107087271E-003	2.000000000000000E+000	-8.8324741E-006	4.6443975E-007
2	1	0	0	1	4.127347895734420E+002	-1.1514523E-001	-1.1524637E-001	3.895170918743446E-003	2.000000000000000E+000	-8.8057304E-006	4.4890430E-007
2	1	0	1	1	4.127413895732752E+002	-1.1184648E-001	-1.1194338E-001	3.877555740109531E-003	2.000000000000000E+000	-8.7799026E-006	4.3406669E-007
2	1	0	0	1	4.127479895731085E+002	-1.0854774E-001	-1.0865150E-001	3.868713159924195E-003	2.000000000000000E+000	-8.7541584E-006	4.2034151E-007
2	1	0	0	1	4.127547895729367E+002	-1.0514903E-001	-1.0526073E-001	3.835910035983662E-003	2.000000000000000E+000	-8.7277695E-006	4.0377068E-007
2	1	0	1	1	4.127613895727700E+002	-1.0185029E-001	-1.0196792E-001	3.803916407317351E-003	2.000000000000000E+000	-8.7023900E-006	3.8787744E-007
2	1	0	0	1	4.127679895726033E+002	-9.8551549E-002	-9.8668404E-002	3.784890104361699E-003	2.000000000000000E+000	-8.6771461E-006	3.7344907E-007
2	1	0	0	1	4.127747895724315E+002	-9.5152847E-002	-9.5276244E-002	3.752038349496927E-003	2.000000000000000E+000	-8.6513473E-006	3.5748013E-007
2	1	0	1	1	4.127813895722647E+002	-9.1854088E-002	-9.1955826E-002	3.711992199653961E-003	2.000000000000000E+000	-8.6265736E-006	3.4133930E-007
2	1	0	0	1	4.127879895720980E+002	-8.8555358E-002	-8.8671520E-002	3.681066829509902E-003	2.000000000000000E+000	-8.6020027E-006	3.2640580E-007
2	1	0	1	1	4.127945895719313E+002	-8.5223295E-002	-8.5336395E-002	3.643611974924486E-003	2.000000000000000E+000	-8.5776601E-006	3.1093271E-007
2	1	0	1	1	4.128013895717595E+002	-8.1824593E-002	-8.1953600E-002	3.600254077961537E-003	2.000000000000000E+000	-8.5528709E-006	2.9505378E-007
2	1	0	0	1	4.128079895715928E+002	-7.8525841E-002	-7.8641683E-002	3.549367950108732E-003	2.000000000000000E+000	-8.5291194E-006	2.7912827E-007
2	1	0	1	1	4.128145895714260E+002	-7.5227104E-002	-7.5352482E-002	3.512842159761938E-003	2.000000000000000E+000	-8.5056326E-006	2.6470138E-007
2	1	0	1	1	4.128213895712543E+002	-7.1828395E-002	-7.1945570E-002	3.475804196447552E-003	2.000000000000000E+000	-8.4817002E-006	2.5006872E-007
2	1	0	0	1	4.128279895710875E+002	-6.8529658E-002	-6.8653956E-002	3.435909391312948E-003	2.000000000000000E+000	-8.4587209E-006	2.3588878E-007
2	1	0	1	1	4.128345895709208E+002	-6.5230913E-002	-6.5347590E-002	3.407997196760951E-003	2.000000000000000E+000	-8.4359590E-006	2.2270440E-007
2	1	0	1	1	4.128413895707490E+002	-6.1832212E-002	-6.1949704E-002	3.364316450764213E-003	2.000000000000000E+000	-8.4127578E-006	2.0841841E-007
2	1	0	0	1	4.128479895705823E+002	-5.8533467E-002	-5.8679953E-002	3.334078911636120E-003	2.000000000000000E+000	-8.3904943E-006	1.9564359E-007
2	1	0	1	1	4.128545895704156E+002	-5.5234727E-002	-5.5375170E-002	3.298525574185376E-003	2.000000000000000E+000	-8.3684336E-006	1.8265641E-007
2	1	0	1	1	4.128613895702438E+002	-5.1836018E-002	-5.1976904E-002	3.276579560345767E-003	2.000000000000000E+000	-8.3459045E-006	1.7030646E-007
2	1	0	0	1	4.128679895700770E+002	-4.8537277E-002	-4.8669010E-002	3.238445417688734E-003	2.000000000000000E+000	-8.3242385E-006	1.5761194E-007
2	1	0	1	1	4.128745895699103E+002	-4.5238536E-002	-4.5377642E-002	3.206869734094675E-003	2.000000000000000E+000	-8.3027890E-006	1.4552019E-007
2	1	0	1	1	4.128813895697385E+002	-4.1839831E-002	-4.1965261E-002	3.179024081146051E-003	2.000000000000000E+000	-8.2808920E-006	1.3340858E-007
2	1	0	0	1	4.128879895695718E+002	-3.8541090E-002	-3.8668748E-002	3.159462145716455E-003	2.000000000000000E+000	-8.2598071E-006	1.2217245E-007
2	1	0	1	1	4.128945895694051E+002	-3.5242349E-002	-3.5368927E-002	3.126179119893402E-003	2.000000000000000E+000	-8.2388879E-006	1.1056960E-007
2	1	0	1	1	4.129013895692333E+002	-3.1843644E-002	-3.1978671E-002	3.094934912375433E-003	2.000000000000000E+000	-8.2175502E-006	9.8971903E-008
2	1	0	0	1	4.129079895690666E+002	-2.8544901E-002	-2.8666895E-002	3.084174878040372E-003	2.000000000000000E+000	-8.1969774E-006	8.8413714E-008
2	1	0	1	1	4.129145895688998E+002	-2.5246158E-002	-2.5359314E-002	3.053424589325004E-003	2.000000000000000E+000	-8.1765438E-006	7.7432752E-008
2	1	0	1	1	4.129213895687280E+002	-2.1847455E-002	-2.1957364E-002	3.026080612835359E-003	2.000000000000000E+000	-8.1556864E-006	6.6444755E-008
2	1	0	0	1	4.129279895685613E+002	-1.8548712E-002	-1.8695628E-002	3.005440226843362E-003	2.000000000000000E+000	-8.1356084E-006	5.6188593E-008
2	1	0	1	1	4.129345895683946E+002	-1.5249968E-002	-1.5391864E-002	2.992826010389162E-003	2.000000000000000E+000	-8.1156259E-006	4.6065171E-008
2	1	0	1	1	4.129413895682228E+002	-1.1851264E-002	-1.1973506E-002	2.981819593636234E-003	2.000000000000000E+000	-8.0951140E-006	3.5702833E-008
2	1	0	0	1	4.129479895680561E+002	-8.5525215E-003	-8.6830948E-003	2.961089378156130E-003	2.000000000000000E+000	-8.0753234E-006	2.5711419E-008
2	1	0	1	1	4.129545895678893E+002	-5.2537788E-003	-5.3730970E-003	2.945359467806462E-003	2.000000000000000E+000	-8.0556483E-006	1.5825702E-008
2	1	0	1	1	4.129613895677176E+002	-1.8550748E-003	-2.0053585E-003	2.923804196385993E-003	2.000000000000000E+000	-8.0355030E-006	5.8632756E-009
2	1	0	0	1	4.129679895675508E+002	1.4825639E-003	1.3572922E-003	2.919845196083778E-003	2.000000000000000E+000	-8.0160353E-006	3.9630832E-009
2	1	0	1	1	4.129745895673841E+002	4.7757290E-003	4.6774000E-003	2.910647259492784E-003	2.000000000000000E+000	-7.9966139E-006	1.3614262E-008
2	1	0	0	1	4.129811895672174E+002	8.0744699E-003	7.9823090E-003	2.891702741362669E-003	2.000000000000000E+000	-7.9772753E-006	2.3082464E-008
2	1	0	0	1	4.129879895670456E+002	1.1473172E-002	1.1374719E-002	2.876387817741487E-003	2.000000000000000E+000	-7.9574720E-006	3.2718106E-008
2	1	0	1	1	4.129945895668789E+002	1.4771913E-002	1.4703475E-002	2.876252143566183E-003	2.000000000000000E+000	-7.9383044E-006	4.2290900E-008
2	1	0	0	1	4.130011895667121E+002	1.8070655E-002	1.7977351E-002	2.850210527534122E-003	2.000000000000000E+000	-7.9192278E-006	5.1239237E-008
2	1	0	0	1	4.130079895665403E+002	2.1469356E-002	2.1378407E-002	2.841715895859430E-003	2.000000000000000E+000	-7.8996827E-006	6.0751361E-008
2	1	0	1	1	4.130145895663736E+002	2.4768097E-002	2.4665006E-002	2.831487882970885E-003	2.000000000000000E+000	-7.8807852E-006	6.9838663E-008
2	1	0	0	1	4.130211895662069E+002	2.8066836E-002	2.7960822E-002	2.820265135748443E-003	2.000000000000000E+000	-7.8619396E-006	7.8856928E-008
2	1	0	0	1	4.130279895660351E+002	3.1465542E-002	3.1364042E-002	2.820856545076821E-003	2.000000000000000E+000	-7.8425601E-006	8.8473463E-008
2	1	0	1	1	4.130345895658684E+002	3.4764282E-002	3.4666155E-002	2.809340947472573E-003	2.000000000000000E+000	-7.8238018E-006	9.7389048E-008
2	1	0	0	1	4.130411895657016E+002	3.8063023E-002	3.7972968E-002	2.807059875067359E-003	2.000000000000000E+000	-7.8050725E-006	1.0659240E-007
2	1	0	0	1	4.130479895655299E+002	4.1461725E-002	4.1362330E-002	2.794161656250559E-003	2.000000000000000E+000	-7.7858367E-006	1.1557304E-007
2	1	0	1	1	4.130545895653631E+002	4.4760469E-002	4.4672899E-002	2.793991227190426E-003	2.000000000000000E+000	-7.7672039E-006	1.2481568E-007
2	1	0	0	1	4.130611895651964E+002	4.8059206E-002	4.7995232E-002	2.797590833112439E-003	2.000000000000000E+000	-7.7485693E-006	1.3427102E-007
2	1	0	0	1	4.130679895650246E+002	5.1457915E-002	5.1387575E-002	2.778940140069609E-003	2.000000000000000E+000	-7.7294317E-006	1.4280299E-007
2	1	0	1	1	4.130745895648579E+002	5.4756656E-002	5.4702088E-002	2.773068139595125E-003	2.000000000000000E+000	-7.7109326E-006	1.5169262E-007
2	1	0	0	1	4.130811895646912E+002	5.8055390E-002	5.8010876E-002	2.760384611519839E-003	2.000000000000000E+000	-7.6924725E-006	1.6013233E-007
2	1	0	0	1	4.130879895645194E+002	6.1454095E-002	6.1394069E-002	2.763067322151376E-003	2.000000000000000E+000	-7.6735014E-006	1.6963595E-007
2	1	0	1	1	4.130945895643526E+002	6.4752832E-002	6.4691283E-002	2.755124269151560E-003	2.000000000000000E+000	-7.6551069E-006	1.7823253E-007
2	1	0	0	1	4.131011895641859E+002	6.8051577E-002	6.7971207E-002	2.756722886958114E-003	2.000000000000000E+000	-7.6367223E-006	1.8737778E-007
2	1	0	0	1	4.131079895640141E+002	7.1450278E-002	7.1363799E-002	2.755926498654547E-003	2.000000000000000E+000	-7.6177735E-006	1.9667338E-007
2	1	0	1	1	4.131145895638474E+002	7.4749023E-002	7.4647792E-002	2.754551218489117E-003	2.000000000000000E+000	-7.5994099E-006	2.0562116E-007
2	1	0	0	1	4.131211895636807E+002	7.8047767E-002	7.7966303E-002	2.750664232553397E-003	2.000000000000000E+000	-7.5810540E-006	2.1445912E-007
2	1	0	0	1	4.131279895635089E+002	8.1446469E-002	8.1377223E-002	2.752845847347394E-003	2.000000000000000E+000	-7.5621438E-006	2.2401895E-007
2	1	0	1	1	4.131345895633422E+002	8.4745198E-002	8.4664576E-002	2.746380993873268E-003	2.000000000000000E+000	-7.5438179E-006	2.3252119E-007
2	1	0	0	1	4.131411895631754E+002	8.8066161E-002	8.7973312E-002	2.760127512525905E-003	2.000000000000000E+000	-7.5254616E-006	2.4281755E-007
2	1	0	1	1	4.131477895630087E+002	9.1376014E-002	9.1287687E-002	2.750077873679410E-003	2.000000000000000E+000	-7.5070834E-006	2.5104825E-007
2	1	0	1	1	4.131545895628369E+002	9.4774723E-002	9.4677493E-002	2.747456502402205E-003	2.000000000000000E+000	-7.4881909E-006	2.6012231E-007
2	1	0	0	1	4.131611895626702E+002	9.8073460E-002	9.7996518E-002	2.752124892291853E-003	2.000000000000000E+000	-7.4698605E-006	2.6969866E-007
2	1	0	1	1	4.131647895625792E+002	9.9906117E-002	9.9814594E-002	2.749469131231308E-003	2.000000000000000E+000	-7.4598515E-006	2.7443716E-007
2	0	0	0	1	4.131653895625641E+002	1.0023932E-001	1.0012745E-001	2.777238376438618E-003	2.000000000000000E+000	-7.4581753E-006	2.7807781E-007
2	0	0	1	1	4.131689895624731E+002	9.8406658E-002	9.8294832E-002	1.902202938572373E-003	2.000000000000000E+000	-7.4510840E-006	1.8697672E-007
2	0	0	0	1	4.131755895623064E+002	9.5107920E-002	9.4961613E-002	1.336732057643536E-003	2.000000000000000E+000	-7.4407490E-006	1.2693823E-007
2	0	0	0	1	4.131823895621346E+002	9.1709211E-002	9.1552868E-002	1.125447916304744E-003	2.000000000000000E+000	-7.4326163E-006	1.0303798E-007
2	0	0	1	1	4.131889895619679E+002	8.8399366E-002	8.8252030E-002	9.853375687877489E-004	2.000000000000000E+000	-7.4258560E-006	8.6958039E-008
2	0	0	0	1	4.131955895618012E+002	8.5078411E-002	8.4937900E-002	8.825083394185650E-004	2.000000000000000E+000	-7.4198929E-006	7.4958407E-008
2	0	0	1	1	4.132021895616344E+002	8.1779666E-002	8.1629232E-002	7.928685292275389E-004	2.000000000000000E+000	-7.4145682E-006	6.4721249E-008
2	0	0	1	1	4.132089895614627E+002	7.8380972E-002	7.8256339E-002	7.051936859246190E-004	2.000000000000000E+000	-7.4096815E-006	5.5185875E-008
2	0	0	0	1	4.132155895612959E+002	7.5082228E-002	7.4931845E-002	6.271907649155178E-004	2.000000000000000E+000	-7.4054760E-006	4.6996561E-008
2	0	0	1	1	4.132221895611292E+002	7.1783490E-002	7.1642071E-002	5.568730548172118E-004	2.000000000000000E+000	-7.4017712E-006	3.9895539E-008
2	0	0	1	1	4.132289895609574E+002	6.8384781E-002	6.8250366E-002	4.898264709405943E-004	2.000000000000000E+000	-7.3984138E-006	3.3430837E-008
2	0	0	0	1	4.132355895607907E+002	6.5086044E-002	6.4957209E-002	4.285184875243433E-004	2.000000000000000E+000	-7.3955712E-006	2.7835364E-008
2	0	0	1	1	4.132421895606240E+002	6.1787300E-002	6.1654843E-002	3.680492991861694E-004	2.000000000000000E+000	-7.3931360E-006	2.2692022E-008
2	0	0	1	1	4.132489895604522E+002	5.8388598E-002	5.8278020E-002	3.115163099247796E-004	2.000000000000000E+000	-7.3910205E-006	1.8154553E-008
2	0	0	0	1	4.132555895602854E+002	5.5089854E-002	5.4969165E-002	2.527573000975277E-004	2.000000000000000E+000	-7.3893457E-006	1.3893858E-008
2	0	0	1	1	4.132621895601187E+002	5.1791117E-002	5.1677678E-002	2.010267033578361E-004	2.000000000000000E+000	-7.3880478E-006	1.0388593E-008
2	0	0	1	1	4.132689895599469E+002	4.8392411E-002	4.8270449E-002	1.487722723728289E-004	2.000000000000000E+000	-7.3870638E-006	7.1813044E-009
2	0	0	0	1	4.132755895597802E+002	4.5093674E-002	4.4961601E-002	9.471646802884041E-005	2.000000000000000E+000	-7.3864517E-006	4.2586041E-009
2	0	0	1	1	4.132821895596135E+002	4.1794933E-002	4.1624956E-002	4.826094277727114E-005	2.000000000000000E+000	-7.3861806E-006	2.0088595E-009
2	0	0	1	1	4.132889895594417E+002	3.8396232E-002	3.8240559E-002	1.238839968794215E-007	2.000000000000000E+000	-7.3862143E-006	4.7373932E-012
2	0	0	0	1	4.132955895592750E+002	3.5097491E-002	3.4948431E-002	-4.586437224058195E-005	2.000000000000000E+000	-7.3865490E-006	1.6028878E-009
2	0	0	1	1	4.133021895591082E+002	3.1798746E-002	3.1640023E-002	-9.328782112352991E-005	2.000000000000000E+000	-7.3872002E-006	2.9516287E-009
2	0	0	1	1	4.133089895589364E+002	2.8400045E-002	2.8246911E-002	-1.358685123136636E-004	2.000000000000000E+000	-7.3881724E-006	3.8378660E-009
2	0	0	0	1	4.133155895587697E+002	2.5101302E-002	2.4942705E-002	-1.801838023141053E-004	2.000000000000000E+000	-7.3894016E-006	4.4942716E-009
2	0	0	1	1	4.133221895586030E+002	2.1802565E-002	2.1634679E-002	-2.196528494664553E-004	2.000000000000000E+000	-7.3909150E-006	4.7521191E-009
2	0	0	1	1	4.133289895584312E+002	1.8403860E-002	1.8267643E-002	-2.642332616649874E-004	2.000000000000000E+000	-7.3927581E-006	4.8269189E-009
2	0	0	0	1	4.133355895582645E+002	1.5105120E-002	1.4978568E-002	-3.034445336879787E-004	2.000000000000000E+000	-7.3948167E-006	4.5451647E-009
2	0	0	1	1	4.133421895580977E+002	1.1806378E-002	1.1650764E-002	-3.497894375717198E-004	2.000000000000000E+000	-7.3971664E-006	4.0753143E-009
2	0	0	1	1	4.133489895579260E+002	8.4076757E-003	8.2496414E-003	-3.891475124305531E-004	2.000000000000000E+000	-7.3998717E-006	3.2103273E-009
2	0	0	0	1	4.133555895577592E+002	5.1089348E-003	4.9598673E-003	-4.252395198742921E-004	2.000000000000000E+000	-7.4027498E-006	2.1091315E-009
2	0	0	1	1	4.133621895575925E+002	1.8101940E-003	1.6190292E-003	-4.708832003416305E-004	2.000000000000000E+000	-7.4059058E-006	7.6237366E-010
2	0	0	0	1	4.133687895574258E+002	-1.5218680E-003	-1.7265150E-003	-5.127950993179774E-004	2.000000000000000E+000	-7.4093505E-006	8.8534846E-010
2	0	0	0	1	4.133755895572540E+002	-4.9205725E-003	-5.1156832E-003	-5.447538575557081E-004	2.000000000000000E+000	-7.4131403E-006	2.7867881E-009
2	0	0	1	1	4.133821895570873E+002	-8.2193147E-003	-8.4027257E-003	-5.828983288514169E-004	2.000000000000000E+000	-7.4170462E-006	4.8979349E-009
2	0	0	0	1	4.133887895569205E+002	-1.1518057E-002	-1.1718192E-002	-6.225739638542425E-004	2.000000000000000E+000	-7.4212167E-006	7.2954411E-009
2	0	0	0	1	4.133955895567487E+002	-1.4916761E-002	-1.5115819E-002	-6.568830412637290E-004	2.000000000000000E+000	-7.4257628E-006	9.9293249E-009
2	0	0	1	1	4.134021895565820E+002	-1.8215504E-002	-1.8404895E-002	-6.941562420858319E-004	2.000000000000000E+000	-7.4304057E-006	1.2775873E-008
2	0	0	0	1	4.134087895564153E+002	-2.1514246E-002	-2.1700839E-002	-7.264865585132896E-004	2.000000000000000E+000	-7.4352861E-006	1.5765368E-008
2	0	0	0	1	4.134155895562435E+002	-2.4912952E-002	-2.5092741E-002	-7.663932577846324E-004	2.000000000000000E+000	-7.4405616E-006	1.9230908E-008
2	0	0	1	1	4.134221895560768E+002	-2.8211692E-002	-2.8392883E-002	-8.052072013848954E-004	2.000000000000000E+000	-7.4459281E-006	2.2862153E-008
2	0	0	0	1	4.134287895559100E+002	-3.1510435E-002	-3.1710707E-002	-8.419307704874285E-004	2.000000000000000E+000	-7.4515551E-006	2.6698221E-008
2	0	0	0	1	4.134355895557383E+002	-3.4909137E-002	-3.5087917E-002	-8.764712520890807E-004	2.000000000000000E+000	-7.4575955E-006	3.0753551E-008
2	0	0	1	1	4.134421895555715E+002	-3.8207881E-002	-3.8386915E-002	-9.104563922240506E-004	2.000000000000000E+000	-7.4636778E-006	3.4949611E-008
2	0	0	0	1	4.134487895554048E+002	-4.1506626E-002	-4.1709628E-002	-9.525816047850320E-004	2.000000000000000E+000	-7.4700165E-006	3.9731823E-008
2	0	0	0	1	4.134555895552330E+002	-4.4905327E-002	-4.5107827E-002	-9.858778564345513E-004	2.000000000000000E+000	-7.4768036E-006	4.4470806E-008
2	0	0	1	1	4.134621895550663E+002	-4.8204072E-002	-4.8405364E-002	-1.017856329917778E-003	2.000000000000000E+000	-7.4836030E-006	4.9269705E-008
2	0	0	0	1	4.134687895548996E+002	-5.1502813E-002	-5.1704995E-002	-1.058066634156300E-003	2.000000000000000E+000	-7.4906443E-006	5.4707332E-008
2	0	0	0	1	4.134755895547278E+002	-5.4901518E-002	-5.5116735E-002	-1.095762603411760E-003	2.000000000000000E+000	-7.4981626E-006	6.0394861E-008
2	0	0	1	1	4.134821895545610E+002	-5.8200262E-002	-5.8422286E-002	-1.127986226447317E-003	2.000000000000000E+000	-7.5056792E-006	6.5899535E-008
2	0	0	0	1	4.134887895543943E+002	-6.1499003E-002	-6.1708245E-002	-1.163241459516936E-003	2.000000000000000E+000	-7.5134290E-006	7.1781592E-008
2	0	0	0	1	4.134955895542225E+002	-6.4897709E-002	-6.5087631E-002	-1.197672354949948E-003	2.000000000000000E+000	-7.5216503E-006	7.7953658E-008
2	0	0	1	1	4.135021895540558E+002	-6.8196453E-002	-6.8395391E-002	-1.238780344298598E-003	2.000000000000000E+000	-7.5298744E-006	8.4726864E-008
2	0	0	0	1	4.135087895538891E+002	-7.1495198E-002	-7.1698777E-002	-1.275586881547495E-003	2.000000000000000E+000	-7.5383577E-006	9.1458020E-008
2	0	0	0	1	4.135155895537173E+002	-7.4893899E-002	-7.5105369E-002	-1.316013699230706E-003	2.000000000000000E+000	-7.5473604E-006	9.8839692E-008
2	0	0	1	1	4.135221895535506E+002	-7.8192636E-002	-7.8397177E-002	-1.349487050447351E-003	2.000000000000000E+000	-7.5563412E-006	1.0579598E-007
2	0	0	0	1	4.135287895533838E+002	-8.1491381E-002	-8.1689119E-002	-1.387666790302921E-003	2.000000000000000E+000	-7.5655712E-006	1.1335728E-007
2	0	0	0	1	4.135355895532120E+002	-8.4890090E-002	-8.5076325E-002	-1.423019767329000E-003	2.000000000000000E+000	-7.5753233E-006	1.2106530E-007
2	0	0	1	1	4.135421895530453E+002	-8.8222146E-002	-8.8392608E-002	-1.470181201678616E-003	2.000000000000000E+000	-7.5850571E-006	1.2995315E-007
2	0	0	0	1	4.135487895528786E+002	-9.1520891E-002	-9.1698214E-002	-1.504307475185358E-003	2.000000000000000E+000	-7.5950579E-006	1.3794231E-007
2	0	0	1	1	4.135553895527119E+002	-9.4819635E-002	-9.5007084E-002	-1.546333246930463E-003	2.000000000000000E+000	-7.6053175E-006	1.4691261E-007
2	0	0	1	1	4.135621895525401E+002	-9.8218344E-002	-9.8398544E-002	-1.588474784390809E-003	2.000000000000000E+000	-7.6161700E-006	1.5630360E-007
2	0	0	0	1	4.135687895523733E+002	-1.0151708E-001	-1.0169353E-001	-1.626029439770103E-003	2.000000000000000E+000	-7.6269639E-006	1.6535667E-007
2	0	0	1	1	4.135753895522066E+002	-1.0481583E-001	-1.0499500E-001	-1.670660320542076E-003	2.000000000000000E+000	-7.6380402E-006	1.7541097E-007
2	0	0	1	1	4.135821895520348E+002	-1.0821453E-001	-1.0839478E-001	-1.716750318367606E-003	2.000000000000000E+000	-7.6497499E-006	1.8608677E-007
2	0	0	0	1	4.135887895518681E+002	-1.1151326E-001	-1.1168672E-001	-1.760525857359121E-003	2.000000000000000E+000	-7.6614087E-006	1.9662735E-007
2	0	0	1	1	4.135953895517014E+002	-1.1481202E-001	-1.1499418E-001	-1.812315246267338E-003	2.000000000000000E+000	-7.6733904E-006	2.0840569E-007
2	0	0	1	1	4.136021895515296E+002	-1.1821070E-001	-1.1838932E-001	-1.862193027106208E-003	2.000000000000000E+000	-7.6860770E-006	2.2046378E-007
2	0	0	0	1	4.136087895513629E+002	-1.2150946E-001	-1.2169100E-001	-1.910399043572391E-003	2.000000000000000E+000	-7.6987108E-006	2.3247837E-007
2	0	0	1	1	4.136153895511961E+002	-1.2480821E-001	-1.2497938E-001	-1.965906927368140E-003	2.000000000000000E+000	-7.7116993E-006	2.4569783E-007
2	0	0	1	1	4.136221895510243E+002	-1.2820691E-001	-1.2840213E-001	-2.025414527482401E-003	2.000000000000000E+000	-7.7254745E-006	2.6006754E-007
2	0	0	0	1	4.136287895508576E+002	-1.3150565E-001	-1.3169642E-001	-2.078619382033742E-003	2.000000000000000E+000	-7.7392006E-006	2.7374674E-007
2	0	0	1	1	4.136353895506909E+002	-1.3480440E-001	-1.3497309E-001	-2.136780451595158E-003	2.000000000000000E+000	-7.7533050E-006	2.8840788E-007
2	0	0	1	1	4.136421895505191E+002	-1.3820310E-001	-1.3838764E-001	-2.204224035631343E-003	2.000000000000000E+000	-7.7682662E-006	3.0503736E-007
2	0	0	0	1	4.136487895503524E+002	-1.4150183E-001	-1.4170590E-001	-2.268582509987009E-003	2.000000000000000E+000	-7.7832156E-006	3.2147153E-007
2	0	0	1	1	4.136553895501856E+002	-1.4480057E-001	-1.4501417E-001	-2.345804076897662E-003	2.000000000000000E+000	-7.7986324E-006	3.4017484E-007
2	0	0	1	1	4.136621895500139E+002	-1.4819928E-001	-1.4841720E-001	-2.413238375902431E-003	2.000000000000000E+000	-7.8150078E-006	3.5816609E-007
2	0	0	0	1	4.136687895498471E+002	-1.5149803E-001	-1.5169261E-001	-2.491974714090846E-003	2.000000000000000E+000	-7.8313806E-006	3.7801416E-007
2	0	0	1	1	4.136753895496804E+002	-1.5479676E-001	-1.5497348E-001	-2.567974207856115E-003	2.000000000000000E+000	-7.8482772E-006	3.9796788E-007
2	0	0	1	1	4.136821895495086E+002	-1.5819548E-001	-1.5838738E-001	-2.664834288558864E-003	2.000000000000000E+000	-7.8662797E-006	4.2207611E-007
2	0	0	0	1	4.136887895493419E+002	-1.6149421E-001	-1.6169070E-001	-2.756907017980370E-003	2.000000000000000E+000	-7.8843632E-006	4.4576620E-007
2	0	0	1	1	4.136953895491752E+002	-1.6479297E-001	-1.6500197E-001	-2.851310894281291E-003	2.000000000000000E+000	-7.9030679E-006	4.7047192E-007
2	0	0	1	1	4.137021895490034E+002	-1.6819167E-001	-1.6841295E-001	-2.961004248542551E-003	2.000000000000000E+000	-7.9230376E-006	4.9867145E-007
2	0	0	0	1	4.137087895488366E+002	-1.7149042E-001	-1.7171742E-001	-3.062157267504514E-003	2.000000000000000E+000	-7.9431065E-006	5.2582573E-007
2	0	0	1	1	4.137153895486699E+002	-1.7481138E-001	-1.7501603E-001	-3.180274599829627E-003	2.000000000000000E+000	-7.9639103E-006	5.5659905E-007
2	0	0	0	1	4.137219895485032E+002	-1.7812122E-001	-1.7833507E-001	-3.304381043562885E-003	2.000000000000000E+000	-7.9855108E-006	5.8928703E-007
2	0	0	0	1	4.137287895483314E+002	-1.8151993E-001	-1.8173504E-001	-3.421451807056046E-003	2.000000000000000E+000	-8.0085883E-006	6.2179765E-007
2	0	0	1	1	4.137353895481647E+002	-1.8481867E-001	-1.8502069E-001	-3.546395679768465E-003	2.000000000000000E+000	-8.0317723E-006	6.5615654E-007
2	0	0	0	1	4.137419895479979E+002	-1.8811741E-001	-1.8833984E-001	-3.677893260282873E-003	2.000000000000000E+000	-8.0558139E-006	6.9269385E-007
2	0	0	0	1	4.137487895478262E+002	-1.9151610E-001	-1.9172356E-001	-3.822259470810718E-003	2.000000000000000E+000	-8.0815225E-006	7.3281717E-007
2	0	0	1	1	4.137553895476594E+002	-1.9481486E-001	-1.9502281E-001	-3.950095153171185E-003	2.000000000000000E+000	-8.1073513E-006	7.7035867E-007
2	0	0	0	1	4.137619895474927E+002	-1.9811359E-001	-1.9831650E-001	-4.101211802723506E-003	2.000000000000000E+000	-8.1341313E-006	8.1333798E-007
2	0	0	0	1	4.137687895473209E+002	-2.0151229E-001	-2.0172018E-001	-4.258665662503804E-003	2.000000000000000E+000	-8.1627632E-006	8.5905879E-007
2	0	0	1	1	4.137753895471542E+002	-2.0481104E-001	-2.0499890E-001	-4.404925326040636E-003	2.000000000000000E+000	-8.1915477E-006	9.0300483E-007
2	0	0	0	1	4.137819895469875E+002	-2.0810981E-001	-2.0830196E-001	-4.554752698701717E-003	2.000000000000000E+000	-8.2213228E-006	9.4876390E-007
2	0	0	0	1	4.137887895468157E+002	-2.1150847E-001	-2.1172617E-001	-4.719980537205002E-003	2.000000000000000E+000	-8.2530614E-006	9.9934346E-007
2	0	0	1	1	4.137953895466489E+002	-2.1480724E-001	-2.1504119E-001	-4.881855481350304E-003	2.000000000000000E+000	-8.2849538E-006	1.0498001E-006
2	0	0	0	1	4.138019895464822E+002	-2.1810599E-001	-2.1831881E-001	-5.035355691021932E-003	2.000000000000000E+000	-8.3178911E-006	1.0993128E-006
2	0	0	0	1	4.138087895463104E+002	-2.2150469E-001	-2.2173348E-001	-5.191044396633499E-003	2.000000000000000E+000	-8.3528703E-006	1.1510283E-006
2	0	0	1	1	4.138153895461437E+002	-2.2480342E-001	-2.2502999E-001	-5.358901288006240E-003	2.000000000000000E+000	-8.3878831E-006	1.2059135E-006
2	0	0	0	1	4.138219895459770E+002	-2.2810218E-001	-2.2832550E-001	-5.510352029887138E-003	2.000000000000000E+000	-8.4239537E-006	1.2581539E-006
2	0	0	0	1	4.138287895458052E+002	-2.3150086E-001	-2.3174074E-001	-5.675526542654574E-003	2.000000000000000E+000	-8.4622143E-006	1.3152508E-006
2	0	0	1	1	4.138353895456385E+002	-2.3479959E-001	-2.3499934E-001	-5.814434034861400E-003	2.000000000000000E+000	-8.5003358E-006	1.3663882E-006
2	0	0	0	1	4.138419895454717E+002	-2.3809834E-001	-2.3831321E-001	-5.959314654804371E-003	2.000000000000000E+000	-8.5394058E-006	1.4201834E-006
2	0	0	0	1	4.138487895453000E+002	-2.4149704E-001	-2.4170993E-001	-6.115142598173390E-003	2.000000000000000E+000	-8.5806751E-006	1.4780907E-006
2	0	0	1	1	4.138553895451332E+002	-2.4479578E-001	-2.4502650E-001	-6.250962018990905E-003	2.000000000000000E+000	-8.6216924E-006	1.5316514E-006
2	0	0	0	1	4.138619895449665E+002	-2.4809453E-001	-2.4831387E-001	-6.384704063627081E-003	2.000000000000000E+000	-8.6635946E-006	1.5854106E-006
2	0	0	0	1	4.138687895447947E+002	-2.5149328E-001	-2.5170997E-001	-6.515153512737001E-003	2.000000000000000E+000	-8.7076596E-006	1.6399291E-006
2	0	0	1	1	4.138753895446280E+002	-2.5479200E-001	-2.5500593E-001	-6.638192575580133E-003	2.000000000000000E+000	-8.7512590E-006	1.6927785E-006
2	0	0	0	1	4.138819895444612E+002	-2.5809073E-001	-2.5830913E-001	-6.749365632155474E-003	2.000000000000000E+000	-8.7956223E-006	1.7434228E-006
2	0	0	0	1	4.138886895442920E+002	-2.6145610E-001	-2.6164415E-001	-6.846191706527255E-003	2.000000000000000E+000	-8.8413353E-006	1.7912661E-006
2	0	0	1	1	4.138953895441227E+002	-2.6482153E-001	-2.6500809E-001	-6.954960804675198E-003	2.000000000000000E+000	-8.8877805E-006	1.8431209E-006
2	0	0	0	1	4.139019895439560E+002	-2.6812026E-001	-2.6832625E-001	-7.050986165268100E-003	2.000000000000000E+000	-8.9341784E-006	1.8919646E-006
2	0	0	1	1	4.139085895437893E+002	-2.7141899E-001	-2.7160791E-001	-7.121820213675745E-003	2.000000000000000E+000	-8.9811492E-006	1.9343427E-006
2	0	0	1	1	4.139153895436175E+002	-2.7481771E-001	-2.7504089E-001	-7.164673590765822E-003	2.000000000000000E+000	-9.0299300E-006	1.9705783E-006
2	0	0	0	1	4.139219895434508E+002	-2.7811643E-001	-2.7830011E-001	-7.216330357914566E-003	2.000000000000000E+000	-9.0775975E-006	2.0083055E-006
2	0	0	1	1	4.139285895432840E+002	-2.8141516E-001	-2.8159896E-001	-7.295336785440032E-003	2.000000000000000E+000	-9.1256807E-006	2.0543591E-006
2	0	0	1	1	4.139353895431123E+002	-2.8481388E-001	-2.8499159E-001	-7.347749483839525E-003	2.000000000000000E+000	-9.1756556E-006	2.0940467E-006
2	0	0	0	1	4.139419895429455E+002	-2.8811261E-001	-2.8830096E-001	-7.339105760547679E-003	2.000000000000000E+000	-9.2243035E-006	2.1158712E-006
2	0	0	1	1	4.139485895427788E+002	-2.9141137E-001	-2.9162177E-001	-7.366143784020104E-003	2.000000000000000E+000	-9.2730397E-006	2.1481280E-006
2	0	0	1	1	4.139553895426070E+002	-2.9481006E-001	-2.9501891E-001	-7.397692761272390E-003	2.000000000000000E+000	-9.3234266E-006	2.1824592E-006
2	0	0	0	1	4.139619895424403E+002	-2.9810879E-001	-2.9835197E-001	-7.412695168386552E-003	2.000000000000000E+000	-9.3724821E-006	2.2115921E-006
2	0	0	1	1	4.139685895422735E+002	-3.0140755E-001	-3.0164331E-001	-7.404819128835984E-003	2.000000000000000E+000	-9.4215557E-006	2.2336142E-006
2	0	0	1	1	4.139753895421018E+002	-3.0480623E-001	-3.0503830E-001	-7.378650507113588E-003	2.000000000000000E+000	-9.4720162E-006	2.2507711E-006
2	0	0	0	1	4.139819895419350E+002	-3.0810499E-001	-3.0834177E-001	-7.375742596195750E-003	2.000000000000000E+000	-9.5208834E-006	2.2742495E-006
2	0	0	1	1	4.139885895417683E+002	-3.1140372E-001	-3.1164464E-001	-7.338171696513504E-003	2.000000000000000E+000	-9.5696305E-006	2.2869019E-006
2	0	0	1	1	4.139953895415965E+002	-3.1480244E-001	-3.1503636E-001	-7.298498214974330E-003	2.000000000000000E+000	-9.6195772E-006	2.2992922E-006
2	0	0	0	1	4.140019895414298E+002	-3.1810117E-001	-3.1832409E-001	-7.265599665212591E-003	2.000000000000000E+000	-9.6678023E-006	2.3128155E-006
2	0	0	1	1	4.140085895412631E+002	-3.2139993E-001	-3.2160124E-001	-7.226899157346152E-003	2.000000000000000E+000	-9.7157954E-006	2.3241798E-006
2	0	0	1	1	4.140153895410913E+002	-3.2479861E-001	-3.2501450E-001	-7.187301288892417E-003	2.000000000000000E+000	-9.7649763E-006	2.3359771E-006
2	0	0	0	1	4.140219895409246E+002	-3.2809737E-001	-3.2830226E-001	-7.136869010961777E-003	2.000000000000000E+000	-9.8124074E-006	2.3430503E-006
2	0	0	1	1	4.140285895407578E+002	-3.3139610E-001	-3.3162087E-001	-7.077937357462344E-003	2.000000000000000E+000	-9.8595174E-006	2.3471919E-006
2	0	0	1	1	4.140353895405860E+002	-3.3479482E-001	-3.3502519E-001	-7.050662949768596E-003	2.000000000000000E+000	-9.9077279E-006	2.3621496E-006
2	0	0	0	1	4.140419895404193E+002	-3.3809355E-001	-3.3830684E-001	-7.005718406314060E-003	2.000000000000000E+000	-9.9542940E-006	2.3700825E-006
2	0	0	1	1	4.140485895402526E+002	-3.4139231E-001	-3.4164104E-001	-6.983831231264032E-003	2.000000000000000E+000	-1.0000632E-005	2.3859634E-006
2	0	0	1	1	4.140553895400808E+002	-3.4479100E-001	-3.4504142E-001	-6.907900705846265E-003	2.000000000000000E+000	-1.0048035E-005	2.3835119E-006
2	0	0	0	1	4.140619895399141E+002	-3.4808975E-001	-3.4833282E-001	-6.855770675247175E-003	2.000000000000000E+000	-1.0093640E-005	2.3880900E-006
2	0	0	1	1	4.140685895397473E+002	-3.5142183E-001	-3.5167333E-001	-6.804096317985828E-003	2.000000000000000E+000	-1.0138918E-005	2.3928192E-006
2	0	0	0	1	4.140751895395806E+002	-3.5472056E-001	-3.5498208E-001	-6.780971479383890E-003	2.000000000000000E+000	-1.0183938E-005	2.4071232E-006
2	0	0	0	1	4.140819895394088E+002	-3.5811925E-001	-3.5835212E-001	-6.738067318777519E-003	2.000000000000000E+000	-1.0230094E-005	2.4146007E-006
2	0	0	1	1	4.140885895392421E+002	-3.6141798E-001	-3.6166000E-001	-6.698433031730594E-003	2.000000000000000E+000	-1.0274603E-005	2.4225553E-006
2	0	0	0	1	4.140951895390754E+002	-3.6471677E-001	-3.6495316E-001	-6.659458761593358E-003	2.000000000000000E+000	-1.0318861E-005	2.4303906E-006
2	0	0	0	1	4.141019895389036E+002	-3.6811545E-001	-3.6834034E-001	-6.628360389974358E-003	2.000000000000000E+000	-1.0364229E-005	2.4414926E-006
2	0	0	1	1	4.141085895387369E+002	-3.7141418E-001	-3.7163794E-001	-6.609652992362200E-003	2.000000000000000E+000	-1.0408079E-005	2.4563979E-006
2	0	0	0	1	4.141151895385701E+002	-3.7471294E-001	-3.7495720E-001	-6.567392911407899E-003	2.000000000000000E+000	-1.0451739E-005	2.4624912E-006
2	0	0	0	1	4.141219895383983E+002	-3.7811163E-001	-3.7834454E-001	-6.533555308245301E-003	2.000000000000000E+000	-1.0496447E-005	2.4719350E-006
2	0	0	1	1	4.141285895382316E+002	-3.8141039E-001	-3.8165900E-001	-6.510715609814130E-003	2.000000000000000E+000	-1.0539678E-005	2.4848732E-006
2	0	0	0	1	4.141351895380649E+002	-3.8470912E-001	-3.8496715E-001	-6.479410503015960E-003	2.000000000000000E+000	-1.0582730E-005	2.4943602E-006
2	0	0	0	1	4.141419895378931E+002	-3.8810784E-001	-3.8835824E-001	-6.458014886447927E-003	2.000000000000000E+000	-1.0626897E-005	2.5080233E-006
2	0	0	1	1	4.141485895377264E+002	-3.9140657E-001	-3.9166105E-001	-6.427519760957984E-003	2.000000000000000E+000	-1.0669587E-005	2.5174090E-006
2	0	0	0	1	4.141551895375596E+002	-3.9470533E-001	-3.9494890E-001	-6.415819415512183E-003	2.000000000000000E+000	-1.0712160E-005	2.5339209E-006
2	0	0	0	1	4.141619895373879E+002	-3.9810398E-001	-3.9838147E-001	-6.389489099941165E-003	2.000000000000000E+000	-1.0755879E-005	2.5454540E-006
2	0	0	1	1	4.141685895372211E+002	-4.0140277E-001	-4.0166375E-001	-6.379178536614433E-003	2.000000000000000E+000	-1.0798178E-005	2.5622849E-006
2	0	0	0	1	4.141751895370544E+002	-4.0470153E-001	-4.0493560E-001	-6.362790528328333E-003	2.000000000000000E+000	-1.0840406E-005	2.5765205E-006
2	0	0	0	1	4.141819895368826E+002	-4.0810022E-001	-4.0833682E-001	-6.355311654442627E-003	2.000000000000000E+000	-1.0883832E-005	2.5951078E-006
2	0	0	1	1	4.141885895367159E+002	-4.1139898E-001	-4.1162890E-001	-6.344209567820766E-003	2.000000000000000E+000	-1.0925920E-005	2.6114601E-006
2	0	0	0	1	4.141951895365492E+002	-4.1469771E-001	-4.1493672E-001	-6.339287699423324E-003	2.000000000000000E+000	-1.0967959E-005	2.6304033E-006
2	0	0	0	1	4.142019895363774E+002	-4.1809639E-001	-4.1834697E-001	-6.322554563485017E-003	2.000000000000000E+000	-1.1011190E-005	2.6450216E-006
2	0	0	1	1	4.142085895362106E+002	-4.2139512E-001	-4.2164993E-001	-6.308416191313851E-003	2.000000000000000E+000	-1.1053030E-005	2.6599432E-006
2	0	0	0	1	4.142151895360439E+002	-4.2469391E-001	-4.2494196E-001	-6.310998849949089E-003	2.000000000000000E+000	-1.1094857E-005	2.6818082E-006
2	0	0	0	1	4.142219895358721E+002	-4.2809263E-001	-4.2832527E-001	-6.304990567999366E-003	2.000000000000000E+000	-1.1137937E-005	2.7005867E-006
2	0	0	1	1	4.142285895357054E+002	-4.3139136E-001	-4.3162602E-001	-6.295526752182923E-003	2.000000000000000E+000	-1.1179694E-005	2.7173132E-006
2	0	0	0	1	4.142351895355387E+002	-4.3469006E-001	-4.3491778E-001	-6.307683224016078E-003	2.000000000000000E+000	-1.1221475E-005	2.7433236E-006
2	0	0	0	1	4.142418895353694E+002	-4.3806687E-001	-4.3830705E-001	-6.304409893785064E-003	2.000000000000000E+000	-1.1263923E-005	2.7632673E-006
2	0	0	1	1	4.142485895352002E+002	-4.4142085E-001	-4.4165400E-001	-6.294880700806957E-003	2.000000000000000E+000	-1.1306319E-005	2.7801593E-006
2	0	0	0	1	4.142551895350334E+002	-4.4471955E-001	-4.4495270E-001	-6.297411119764243E-003	2.000000000000000E+000	-1.1348064E-005	2.8020499E-006
2	0	0	1	1	4.142617895348667E+002	-4.4801831E-001	-4.4823530E-001	-6.304452526273957E-003	2.000000000000000E+000	-1.1389837E-005	2.8258783E-006
2	0	0	1	1	4.142685895346949E+002	-4.5141700E-001	-4.5164579E-001	-6.305598012174105E-003	2.000000000000000E+000	-1.1432905E-005	2.8478969E-006
2	0	0	0	1	4.142751895345282E+002	-4.5471576E-001	-4.5491990E-001	-6.309681165475908E-003	2.000000000000000E+000	-1.1474706E-005	2.8703996E-006
2	0	0	1	1	4.142817895343615E+002	-4.5801449E-001	-4.5824564E-001	-6.312671831741085E-003	2.000000000000000E+000	-1.1516540E-005	2.8927543E-006
2	0	0	1	1	4.142885895341897E+002	-4.6141320E-001	-4.6166009E-001	-6.332687627036641E-003	2.000000000000000E+000	-1.1559734E-005	2.9235491E-006
2	0	0	0	1	4.142951895340229E+002	-4.6471196E-001	-4.6492901E-001	-6.331831477230765E-003	2.000000000000000E+000	-1.1601709E-005	2.9438522E-006
2	0	0	1	1	4.143017895338562E+002	-4.6801066E-001	-4.6827054E-001	-6.348739845634549E-003	2.000000000000000E+000	-1.1643735E-005	2.9729279E-006
2	0	0	1	1	4.143085895336844E+002	-4.7140935E-001	-4.7167122E-001	-6.366845126952590E-003	2.000000000000000E+000	-1.1687149E-005	3.0030576E-006
2	0	0	0	1	4.143151895335177E+002	-4.7470811E-001	-4.7496629E-001	-6.362113801939490E-003	2.000000000000000E+000	-1.1729322E-005	3.0217896E-006
2	0	0	1	1	4.143217895333510E+002	-4.7800684E-001	-4.7824967E-001	-6.376882815554097E-003	2.000000000000000E+000	-1.1771544E-005	3.0497422E-006
2	0	0	1	1	4.143285895331792E+002	-4.8140556E-001	-4.8166901E-001	-6.386282620466449E-003	2.000000000000000E+000	-1.1815125E-005	3.0760743E-006
2	0	0	0	1	4.143351895330125E+002	-4.8470432E-001	-4.8494869E-001	-6.399086963453246E-003	2.000000000000000E+000	-1.1857504E-005	3.1032289E-006
2	0	0	1	1	4.143417895328457E+002	-4.8800308E-001	-4.8827481E-001	-6.423996737915626E-003	2.000000000000000E+000	-1.1900028E-005	3.1366758E-006
2	0	0	1	1	4.143485895326739E+002	-4.9140179E-001	-4.9162868E-001	-6.420999019852991E-003	2.000000000000000E+000	-1.1943904E-005	3.1567472E-006
2	0	0	0	1	4.143551895325072E+002	-4.9470055E-001	-4.9494201E-001	-6.447161365698173E-003	2.000000000000000E+000	-1.1986549E-005	3.1909710E-006
2	0	0	1	1	4.143617895323405E+002	-4.9799928E-001	-4.9825469E-001	-6.457490485627181E-003	2.000000000000000E+000	-1.2029322E-005	3.2174748E-006
2	0	0	1	1	4.143685895321687E+002	-5.0139791E-001	-5.0166023E-001	-6.487779082817710E-003	2.000000000000000E+000	-1.2073537E-005	3.2546607E-006
2	0	0	0	1	4.143751895320020E+002	-5.0469673E-001	-5.0495809E-001	-6.525574905269088E-003	2.000000000000000E+000	-1.2116659E-005	3.2951418E-006
2	0	0	1	1	4.143817895318352E+002	-5.0799543E-001	-5.0825137E-001	-6.549740399835469E-003	2.000000000000000E+000	-1.2160015E-005	3.3289145E-006
2	0	0	1	1	4.143885895316635E+002	-5.1139414E-001	-5.1166725E-001	-6.566001525061416E-003	2.000000000000000E+000	-1.2204800E-005	3.3596079E-006
2	0	0	0	1	4.143951895314967E+002	-5.1469284E-001	-5.1494986E-001	-6.585910730306482E-003	2.000000000000000E+000	-1.2248368E-005	3.3914139E-006
2	0	0	1	1	4.144017895313300E+002	-5.1799160E-001	-5.1824546E-001	-6.595593658251658E-003	2.000000000000000E+000	-1.2292047E-005	3.4181364E-006
2	0	0	1	1	4.144085895311582E+002	-5.2139038E-001	-5.2163804E-001	-6.617951274650577E-003	2.000000000000000E+000	-1.2337165E-005	3.4521752E-006
2	0	0	0	1	4.144151895309915E+002	-5.2471131E-001	-5.2495217E-001	-6.656126099551322E-003	2.000000000000000E+000	-1.2381151E-005	3.4941479E-006
2	0	0	1	1	4.144217895308248E+002	-5.2802116E-001	-5.2828538E-001	-6.696570880133867E-003	2.000000000000000E+000	-1.2425418E-005	3.5377004E-006
2	0	0	0	1	4.144283895306580E+002	-5.3131986E-001	-5.3155959E-001	-6.720631020652942E-003	2.000000000000000E+000	-1.2469897E-005	3.5724158E-006
2	0	0	0	1	4.144351895304862E+002	-5.3471863E-001	-5.3496480E-001	-6.746101413834055E-003	2.000000000000000E+000	-1.2515880E-005	3.6089268E-006
2	0	0	1	1	4.144417895303195E+002	-5.3801733E-001	-5.3825891E-001	-6.773185892719351E-003	2.000000000000000E+000	-1.2560678E-005	3.6457277E-006
2	0	0	0	1	4.144483895301528E+002	-5.4131609E-001	-5.4156119E-001	-6.813591116709469E-003	2.000000000000000E+000	-1.2605713E-005	3.6899764E-006
2	0	0	0	1	4.144551895299810E+002	-5.4471481E-001	-5.4496497E-001	-6.847132691473246E-003	2.000000000000000E+000	-1.2652363E-005	3.7314474E-006
2	0	0	1	1	4.144617895298143E+002	-5.4801357E-001	-5.4825753E-001	-6.885561373686233E-003	2.000000000000000E+000	-1.2697870E-005	3.7750608E-006
2	0	0	0	1	4.144683895296475E+002	-5.5131233E-001	-5.5155778E-001	-6.932220392506371E-003	2.000000000000000E+000	-1.2743652E-005	3.8235203E-006
2	0	0	0	1	4.144751895294758E+002	-5.5471098E-001	-5.5497098E-001	-6.972259207032011E-003	2.000000000000000E+000	-1.2791128E-005	3.8694016E-006
2	0	0	1	1	4.144817895293090E+002	-5.5800974E-001	-5.5828977E-001	-7.016221967326909E-003	2.000000000000000E+000	-1.2837468E-005	3.9170850E-006
2	0	0	0	1	4.144883895291423E+002	-5.6130838E-001	-5.6157345E-001	-7.054072603205008E-003	2.000000000000000E+000	-1.2884093E-005	3.9613797E-006
2	0	0	0	1	4.144951895289705E+002	-5.6470716E-001	-5.6498361E-001	-7.104108534864866E-003	2.000000000000000E+000	-1.2932437E-005	4.0137047E-006
2	0	0	1	1	4.145017895288038E+002	-5.6800586E-001	-5.6828064E-001	-7.149082922599845E-003	2.000000000000000E+000	-1.2979660E-005	4.0626855E-006
2	0	0	0	1	4.145083895286371E+002	-5.7130462E-001	-5.7156253E-001	-7.204037111053642E-003	2.000000000000000E+000	-1.3027229E-005	4.1175576E-006
2	0	0	0	1	4.145151895284653E+002	-5.7470340E-001	-5.7497317E-001	-7.259686479301303E-003	2.000000000000000E+000	-1.3076606E-005	4.1741250E-006
2	0	0	1	1	4.145217895282985E+002	-5.7800210E-001	-5.7826626E-001	-7.320029940698691E-003	2.000000000000000E+000	-1.3124887E-005	4.2329266E-006
2	0	0	0	1	4.145283895281318E+002	-5.8130085E-001	-5.8155638E-001	-7.361466668589833E-003	2.000000000000000E+000	-1.3173535E-005	4.2811080E-006
2	0	0	0	1	4.145351895279600E+002	-5.8469951E-001	-5.8495504E-001	-7.439311572306895E-003	2.000000000000000E+000	-1.3224060E-005	4.3516629E-006
2	0	0	1	1	4.145417895277933E+002	-5.8799827E-001	-5.8825642E-001	-7.486437107945679E-003	2.000000000000000E+000	-1.3273494E-005	4.4039448E-006
2	0	0	0	1	4.145483895276266E+002	-5.9129697E-001	-5.9155905E-001	-7.556796192390428E-003	2.000000000000000E+000	-1.3323330E-005	4.4702911E-006
2	0	0	0	1	4.145551895274548E+002	-5.9469569E-001	-5.9495795E-001	-7.635072143724164E-003	2.000000000000000E+000	-1.3375182E-005	4.5425468E-006
2	0	0	1	1	4.145617895272881E+002	-5.9799445E-001	-5.9823996E-001	-7.720387777711363E-003	2.000000000000000E+000	-1.3426042E-005	4.6186447E-006
2	0	0	0	1	4.145653895271971E+002	-5.9982693E-001	-6.0009611E-001	-7.774974219501019E-003	2.000000000000000E+000	-1.3453970E-005	4.6657319E-006