EC-Lab ASCII FILE
Nb header lines : 53                          

Cyclic Voltammetry

Run on channel : 1 (SN 0696)
User : 
Electrode connection : standard
Ewe ctrl range : min = -10.00 V, max = 10.00 V
Ewe,I filtering : 50 kHz
Channel : Grounded
Acquisition started on : 05/17/2017 12:39:23
Saved on :
	File : 100 uM MB 10mM PB  second ito_03_CV_C01.mpr
	Directory : \\userfs\st659\w2k\EC-Lab\Data\ITO Characterisation 17-5-17\
	Host : 144.32.136.43
Device : SP-300 (SN 0182)
Address : USB
EC-Lab for windows v10.44 (software)
Internet server v10.44 (firmware)
Command interpretor v10.44 (firmware)
Electrode material : 
Initial state : 
Electrolyte : 
Comments : 
Cable : standard
Electrode surface area : 0.001 cm²
Characteristic mass : 0.001 g
Equivalent Weight : 0.000 g/eq.
Density : 0.000 g/cm3
Ei (V)              0.000               
vs.                 Eoc                 
dE/dt               100.000             
dE/dt unit          mV/s                
E1 (V)              0.100               
vs.                 Ref                 
Step percent        50                  
N                   10                  
E range min (V)     -10.000             
E range max (V)     10.000              
I Range             Auto                
I Range min         Unset               
I Range max         Unset               
I Range init        Unset               
Bandwidth           8                   
E2 (V)              -0.600              
vs.                 Ref                 
nc cycles           2                   
Reverse Scan        1                   
Ef (V)              0.000               
vs.                 Eoc                 

mode	ox/red	error	control changes	counter inc.	time/s	control/V	Ewe/V	<I>/mA	cycle number	(Q-Qo)/C	P/W
2	1	0	0	1	3.516419911167759E+002	-6.0016018E-001	-6.0037464E-001	-5.605544894933701E-003	2.000000000000000E+000	-2.3755370E-005	3.3654269E-006
2	1	0	1	1	3.516603911163111E+002	-5.9832108E-001	-5.9853244E-001	-5.127392039371265E-003	2.000000000000000E+000	-2.3850009E-005	3.0689105E-006
2	1	0	1	1	3.516935911154724E+002	-5.9500009E-001	-5.9522122E-001	-4.896841676694463E-003	2.000000000000000E+000	-2.4014804E-005	2.9147041E-006
2	1	0	0	1	3.517269911146286E+002	-5.9165692E-001	-5.9187537E-001	-4.745887440442811E-003	2.000000000000000E+000	-2.4174458E-005	2.8089739E-006
2	1	0	0	1	3.517601911137899E+002	-5.8833820E-001	-5.8856618E-001	-4.614898177409218E-003	2.000000000000000E+000	-2.4328507E-005	2.7161730E-006
2	1	0	1	1	3.517935911129462E+002	-5.8499944E-001	-5.8521020E-001	-4.494781183618925E-003	2.000000000000000E+000	-2.4479314E-005	2.6303919E-006
2	1	0	0	1	3.518269911121024E+002	-5.8166069E-001	-5.8185935E-001	-4.385569845671150E-003	2.000000000000000E+000	-2.4626284E-005	2.5517847E-006
2	1	0	0	1	3.518601911112637E+002	-5.7834196E-001	-5.7856482E-001	-4.282691844408090E-003	2.000000000000000E+000	-2.4768848E-005	2.4778149E-006
2	1	0	1	1	3.518935911104199E+002	-5.7499659E-001	-5.7521069E-001	-4.189196736869794E-003	2.000000000000000E+000	-2.4908974E-005	2.4096707E-006
2	1	0	1	1	3.519267911095812E+002	-5.7167786E-001	-5.7190049E-001	-4.098460130928152E-003	2.000000000000000E+000	-2.5045230E-005	2.3439113E-006
2	1	0	0	1	3.519601911087375E+002	-5.6833911E-001	-5.6857878E-001	-4.013650493930238E-003	2.000000000000000E+000	-2.5179366E-005	2.2820766E-006
2	1	0	1	1	3.519935911078937E+002	-5.6500041E-001	-5.6523740E-001	-3.931787832105460E-003	2.000000000000000E+000	-2.5310739E-005	2.2223935E-006
2	1	0	1	1	3.520267911070550E+002	-5.6168169E-001	-5.6190199E-001	-3.854293112219433E-003	2.000000000000000E+000	-2.5438676E-005	2.1657349E-006
2	1	0	0	1	3.520601911062113E+002	-5.5833852E-001	-5.5856228E-001	-3.780376179687061E-003	2.000000000000000E+000	-2.5564892E-005	2.1115754E-006
2	1	0	0	1	3.520933911053726E+002	-5.5501753E-001	-5.5524409E-001	-3.714062181232422E-003	2.000000000000000E+000	-2.5688016E-005	2.0622110E-006
2	1	0	1	1	3.521267911045288E+002	-5.5167884E-001	-5.5188346E-001	-3.642681754895910E-003	2.000000000000000E+000	-2.5809579E-005	2.0103357E-006
2	1	0	0	1	3.521601911036851E+002	-5.4834008E-001	-5.4854542E-001	-3.585032812455514E-003	2.000000000000000E+000	-2.5928992E-005	1.9665533E-006
2	1	0	0	1	3.521933911028464E+002	-5.4502136E-001	-5.4522556E-001	-3.520487126650682E-003	2.000000000000000E+000	-2.6045673E-005	1.9194595E-006
2	1	0	1	1	3.522267911020026E+002	-5.4167813E-001	-5.4187965E-001	-3.460064877931629E-003	2.000000000000000E+000	-2.6160978E-005	1.8749388E-006
2	1	0	1	1	3.522599911011639E+002	-5.3835726E-001	-5.3857398E-001	-3.407045153020330E-003	2.000000000000000E+000	-2.6273696E-005	1.8349459E-006
2	1	0	0	1	3.522933911003202E+002	-5.3501850E-001	-5.3520966E-001	-3.350372528996871E-003	2.000000000000000E+000	-2.6385247E-005	1.7931517E-006
2	1	0	1	1	3.523267910994764E+002	-5.3167981E-001	-5.3189540E-001	-3.298483554541165E-003	2.000000000000000E+000	-2.6495027E-005	1.7544482E-006
2	1	0	1	1	3.523599910986377E+002	-5.2836102E-001	-5.2855724E-001	-3.247459146088507E-003	2.000000000000000E+000	-2.6602414E-005	1.7164681E-006
2	1	0	0	1	3.523933910977939E+002	-5.2502006E-001	-5.2524328E-001	-3.199925996887024E-003	2.000000000000000E+000	-2.6708818E-005	1.6807396E-006
2	1	0	0	1	3.524265910969552E+002	-5.2169693E-001	-5.2190280E-001	-3.150551623521434E-003	2.000000000000000E+000	-2.6812944E-005	1.6442817E-006
2	1	0	1	1	3.524599910961115E+002	-5.1835817E-001	-5.1855731E-001	-3.102859013187870E-003	2.000000000000000E+000	-2.6916106E-005	1.6090103E-006
2	1	0	0	1	3.524933910952677E+002	-5.1501948E-001	-5.1522601E-001	-3.058987962991790E-003	2.000000000000000E+000	-2.7017744E-005	1.5760702E-006
2	1	0	0	1	3.525265910944290E+002	-5.1170069E-001	-5.1192236E-001	-3.016707951157720E-003	2.000000000000000E+000	-2.7117350E-005	1.5443203E-006
2	1	0	1	1	3.525599910935853E+002	-5.0836200E-001	-5.0858730E-001	-2.973944014746759E-003	2.000000000000000E+000	-2.7216121E-005	1.5125102E-006
2	1	0	1	1	3.525931910927466E+002	-5.0503659E-001	-5.0524700E-001	-2.933028731656823E-003	2.000000000000000E+000	-2.7312915E-005	1.4819040E-006
2	1	0	0	1	3.526265910919028E+002	-5.0169790E-001	-5.0190628E-001	-2.892681399335500E-003	2.000000000000000E+000	-2.7408933E-005	1.4518549E-006
2	1	0	1	1	3.526599910910591E+002	-4.9835914E-001	-4.9855101E-001	-2.853378452364951E-003	2.000000000000000E+000	-2.7503633E-005	1.4225548E-006
2	1	0	1	1	3.526931910902204E+002	-4.9504042E-001	-4.9524021E-001	-2.816300913066325E-003	2.000000000000000E+000	-2.7596485E-005	1.3947455E-006
2	1	0	0	1	3.527265910893766E+002	-4.9170169E-001	-4.9190152E-001	-2.779807399471142E-003	2.000000000000000E+000	-2.7688679E-005	1.3673915E-006
2	1	0	1	1	3.527598910885354E+002	-4.8836738E-001	-4.8860094E-001	-2.744343497021753E-003	2.000000000000000E+000	-2.7779386E-005	1.3408888E-006
2	1	0	1	1	3.527931910876941E+002	-4.8503757E-001	-4.8524442E-001	-2.706711185989372E-003	2.000000000000000E+000	-2.7868902E-005	1.3134165E-006
2	1	0	0	1	3.528265910868504E+002	-4.8169884E-001	-4.8191404E-001	-2.671491527375842E-003	2.000000000000000E+000	-2.7957474E-005	1.2874293E-006
2	1	0	0	1	3.528597910860117E+002	-4.7838011E-001	-4.7858742E-001	-2.638273820538641E-003	2.000000000000000E+000	-2.8044356E-005	1.2626447E-006
2	1	0	1	1	3.528931910851679E+002	-4.7504136E-001	-4.7524282E-001	-2.605206770364290E-003	2.000000000000000E+000	-2.8130635E-005	1.2381058E-006
2	1	0	0	1	3.529264910843267E+002	-4.7170931E-001	-4.7192031E-001	-2.572591024856859E-003	2.000000000000000E+000	-2.8215602E-005	1.2140580E-006
2	1	0	0	1	3.529597910834855E+002	-4.6837720E-001	-4.6858606E-001	-2.540188527135688E-003	2.000000000000000E+000	-2.8299472E-005	1.1902969E-006
2	1	0	1	1	3.529931910826417E+002	-4.6503851E-001	-4.6521232E-001	-2.506008878629437E-003	2.000000000000000E+000	-2.8382494E-005	1.1658262E-006
2	1	0	1	1	3.530263910818030E+002	-4.6171975E-001	-4.6190849E-001	-2.476966614404871E-003	2.000000000000000E+000	-2.8463999E-005	1.1441319E-006
2	1	0	0	1	3.530597910809593E+002	-4.5838103E-001	-4.5856857E-001	-2.446848814633321E-003	2.000000000000000E+000	-2.8545006E-005	1.1220479E-006
2	1	0	1	1	3.530930910801180E+002	-4.5505121E-001	-4.5522195E-001	-2.415111291081488E-003	2.000000000000000E+000	-2.8624741E-005	1.0994116E-006
2	1	0	1	1	3.531263910792768E+002	-4.5171693E-001	-4.5189267E-001	-2.388342261202284E-003	2.000000000000000E+000	-2.8703500E-005	1.0792744E-006
2	1	0	0	1	3.531597910784330E+002	-4.4837824E-001	-4.4856393E-001	-2.359426563014966E-003	2.000000000000000E+000	-2.8781562E-005	1.0583536E-006
2	1	0	0	1	3.531929910775943E+002	-4.4505945E-001	-4.4527355E-001	-2.331747566770188E-003	2.000000000000000E+000	-2.8858216E-005	1.0382655E-006
2	1	0	1	1	3.532263910767506E+002	-4.4172072E-001	-4.4191507E-001	-2.302672001646392E-003	2.000000000000000E+000	-2.8934375E-005	1.0175854E-006
2	1	0	0	1	3.532596910759094E+002	-4.3839088E-001	-4.3860522E-001	-2.275090905882030E-003	2.000000000000000E+000	-2.9009392E-005	9.9786678E-007
2	1	0	0	1	3.532929910750681E+002	-4.3505663E-001	-4.3525302E-001	-2.247661451547187E-003	2.000000000000000E+000	-2.9083460E-005	9.7830150E-007
2	1	0	1	1	3.533263910742244E+002	-4.3171787E-001	-4.3191648E-001	-2.221510712999447E-003	2.000000000000000E+000	-2.9156867E-005	9.5950713E-007
2	1	0	1	1	3.533595910733857E+002	-4.2839915E-001	-4.2859608E-001	-2.194510626396994E-003	2.000000000000000E+000	-2.9228946E-005	9.4055866E-007
2	1	0	0	1	3.533929910725419E+002	-4.2506045E-001	-4.2527759E-001	-2.170463053717629E-003	2.000000000000000E+000	-2.9300589E-005	9.2304930E-007
2	1	0	1	1	3.534263910716982E+002	-4.2172173E-001	-4.2194599E-001	-2.141358911186983E-003	2.000000000000000E+000	-2.9371355E-005	9.0353780E-007
2	1	0	1	1	3.534595910708595E+002	-4.1839632E-001	-4.1862497E-001	-2.115976526259110E-003	2.000000000000000E+000	-2.9440787E-005	8.8580060E-007
2	1	0	0	1	3.534929910700157E+002	-4.1505754E-001	-4.1526970E-001	-2.091378652392579E-003	2.000000000000000E+000	-2.9509807E-005	8.6848621E-007
2	1	0	0	1	3.535261910691770E+002	-4.1173881E-001	-4.1193521E-001	-2.065954555313249E-003	2.000000000000000E+000	-2.9577564E-005	8.5103943E-007
2	1	0	1	1	3.535595910683332E+002	-4.0840009E-001	-4.0861398E-001	-2.040422603151668E-003	2.000000000000000E+000	-2.9644862E-005	8.3374522E-007
2	1	0	0	1	3.535929910674895E+002	-4.0506136E-001	-4.0525532E-001	-2.016255853523038E-003	2.000000000000000E+000	-2.9711353E-005	8.1709840E-007
2	1	0	0	1	3.536261910666508E+002	-4.0173820E-001	-4.0196323E-001	-1.990144604036075E-003	2.000000000000000E+000	-2.9776609E-005	7.9996494E-007
2	1	0	1	1	3.536595910658070E+002	-3.9839724E-001	-3.9862350E-001	-1.967018908528384E-003	2.000000000000000E+000	-2.9841434E-005	7.8409994E-007
2	1	0	1	1	3.536927910649683E+002	-3.9507851E-001	-3.9531082E-001	-1.943024821917381E-003	2.000000000000000E+000	-2.9905092E-005	7.6809874E-007
2	1	0	0	1	3.537261910641246E+002	-3.9173979E-001	-3.9197260E-001	-1.917430757608527E-003	2.000000000000000E+000	-2.9968312E-005	7.5158033E-007
2	1	0	1	1	3.537595910632808E+002	-3.8840103E-001	-3.8862073E-001	-1.895114952233230E-003	2.000000000000000E+000	-3.0030747E-005	7.3648096E-007
2	1	0	1	1	3.537927910624421E+002	-3.8508007E-001	-3.8531393E-001	-1.871773253428889E-003	2.000000000000000E+000	-3.0092026E-005	7.2122032E-007
2	1	0	0	1	3.538261910615984E+002	-3.8173690E-001	-3.8194871E-001	-1.847050366195615E-003	2.000000000000000E+000	-3.0152869E-005	7.0547850E-007
2	1	0	0	1	3.538593910607597E+002	-3.7841821E-001	-3.7863189E-001	-1.823944057773422E-003	2.000000000000000E+000	-3.0212559E-005	6.9060337E-007
2	1	0	1	1	3.538927910599159E+002	-3.7507948E-001	-3.7527856E-001	-1.801397969223517E-003	2.000000000000000E+000	-3.0271853E-005	6.7602605E-007
2	1	0	0	1	3.539261910590722E+002	-3.7174073E-001	-3.7194306E-001	-1.777748644275962E-003	2.000000000000000E+000	-3.0330373E-005	6.6122129E-007
2	1	0	0	1	3.539593910582335E+002	-3.6842203E-001	-3.6861926E-001	-1.754881191863438E-003	2.000000000000000E+000	-3.0387768E-005	6.4688300E-007
2	1	0	1	1	3.539927910573897E+002	-3.6507660E-001	-3.6527023E-001	-1.731695670775170E-003	2.000000000000000E+000	-3.0444757E-005	6.3253685E-007
2	1	0	1	1	3.540259910565510E+002	-3.6175787E-001	-3.6196575E-001	-1.709294230246020E-003	2.000000000000000E+000	-3.0500665E-005	6.1870594E-007
2	1	0	0	1	3.540593910557072E+002	-3.5841912E-001	-3.5863596E-001	-1.686442471155139E-003	2.000000000000000E+000	-3.0556152E-005	6.0481892E-007
2	1	0	1	1	3.540927910548635E+002	-3.5508043E-001	-3.5530335E-001	-1.665021148704295E-003	2.000000000000000E+000	-3.0610903E-005	5.9158759E-007
2	1	0	1	1	3.541259910540248E+002	-3.5176173E-001	-3.5198253E-001	-1.642752962622944E-003	2.000000000000000E+000	-3.0664578E-005	5.7822035E-007
2	1	0	0	1	3.541593910531810E+002	-3.4841633E-001	-3.4862053E-001	-1.617613445118030E-003	2.000000000000000E+000	-3.0717776E-005	5.6393327E-007
2	1	0	0	1	3.541925910523423E+002	-3.4509757E-001	-3.4531114E-001	-1.597400114074436E-003	2.000000000000000E+000	-3.0769912E-005	5.5160007E-007
2	1	0	1	1	3.542259910514986E+002	-3.4175885E-001	-3.4197807E-001	-1.574043044351534E-003	2.000000000000000E+000	-3.0821637E-005	5.3828819E-007
2	1	0	0	1	3.542593910506548E+002	-3.3842009E-001	-3.3861104E-001	-1.549231670142034E-003	2.000000000000000E+000	-3.0872572E-005	5.2458694E-007
2	1	0	0	1	3.542925910498161E+002	-3.3510137E-001	-3.3527464E-001	-1.528434787288898E-003	2.000000000000000E+000	-3.0922427E-005	5.1244541E-007
2	1	0	1	1	3.543259910489724E+002	-3.3175823E-001	-3.3193827E-001	-1.504116993099960E-003	2.000000000000000E+000	-3.0971853E-005	4.9927399E-007
2	1	0	1	1	3.543591910481337E+002	-3.2843727E-001	-3.2861874E-001	-1.481324440004149E-003	2.000000000000000E+000	-3.1020187E-005	4.8679095E-007
2	1	0	0	1	3.543925910472899E+002	-3.2509854E-001	-3.2526472E-001	-1.458237411188068E-003	2.000000000000000E+000	-3.1068059E-005	4.7431320E-007
2	1	0	1	1	3.544259910464461E+002	-3.2175979E-001	-3.2193038E-001	-1.435179500406742E-003	2.000000000000000E+000	-3.1115160E-005	4.6202788E-007
2	1	0	1	1	3.544591910456074E+002	-3.1844109E-001	-3.1862479E-001	-1.413029975102055E-003	2.000000000000000E+000	-3.1161231E-005	4.5022639E-007
2	1	0	0	1	3.544925910447637E+002	-3.1510010E-001	-3.1528905E-001	-1.387836494366093E-003	2.000000000000000E+000	-3.1206782E-005	4.3756964E-007
2	1	0	0	1	3.545257910439250E+002	-3.1177691E-001	-3.1197596E-001	-1.364693344935563E-003	2.000000000000000E+000	-3.1251260E-005	4.2575152E-007
2	1	0	1	1	3.545591910430812E+002	-3.0843821E-001	-3.0862734E-001	-1.338896191411074E-003	2.000000000000000E+000	-3.1295178E-005	4.1321996E-007
2	1	0	0	1	3.545925910422375E+002	-3.0509949E-001	-3.0528125E-001	-1.313470607072102E-003	2.000000000000000E+000	-3.1338255E-005	4.0097794E-007
2	1	0	0	1	3.546257910413988E+002	-3.0178073E-001	-3.0195388E-001	-1.290042949824249E-003	2.000000000000000E+000	-3.1380259E-005	3.8953348E-007
2	1	0	1	1	3.546591910405550E+002	-2.9844201E-001	-2.9862306E-001	-1.262723532156625E-003	2.000000000000000E+000	-3.1421663E-005	3.7707835E-007
2	1	0	1	1	3.546923910397163E+002	-2.9511663E-001	-2.9528114E-001	-1.234823493451350E-003	2.000000000000000E+000	-3.1461877E-005	3.6462009E-007
2	1	0	0	1	3.547257910388726E+002	-2.9177788E-001	-2.9192555E-001	-1.208532821870496E-003	2.000000000000000E+000	-3.1501451E-005	3.5280161E-007
2	1	0	1	1	3.547591910380288E+002	-2.8843915E-001	-2.8858250E-001	-1.180764891342497E-003	2.000000000000000E+000	-3.1540134E-005	3.4074810E-007
2	1	0	1	1	3.547923910371901E+002	-2.8512040E-001	-2.8527620E-001	-1.151161703125611E-003	2.000000000000000E+000	-3.1577620E-005	3.2839904E-007
2	1	0	0	1	3.548257910363463E+002	-2.8178170E-001	-2.8192669E-001	-1.122246966675714E-003	2.000000000000000E+000	-3.1614341E-005	3.1639138E-007
2	1	0	1	1	3.548590910355051E+002	-2.7844742E-001	-2.7860871E-001	-1.090902876563229E-003	2.000000000000000E+000	-3.1649972E-005	3.0393505E-007
2	1	0	1	1	3.548923910346639E+002	-2.7511761E-001	-2.7528790E-001	-1.061069994372058E-003	2.000000000000000E+000	-3.1684576E-005	2.9209971E-007
2	1	0	0	1	3.549257910338201E+002	-2.7177888E-001	-2.7193630E-001	-1.027441798052879E-003	2.000000000000000E+000	-3.1718231E-005	2.7939871E-007
2	1	0	0	1	3.549589910329814E+002	-2.6846012E-001	-2.6861152E-001	-9.929060709907428E-004	2.000000000000000E+000	-3.1750529E-005	2.6670600E-007
2	1	0	1	1	3.549923910321377E+002	-2.6512137E-001	-2.6527613E-001	-9.569422252496693E-004	2.000000000000000E+000	-3.1781849E-005	2.5385393E-007
2	1	0	0	1	3.550256910312964E+002	-2.6178929E-001	-2.6192307E-001	-9.189487478175190E-004	2.000000000000000E+000	-3.1811844E-005	2.4069388E-007
2	1	0	0	1	3.550589910304552E+002	-2.5845724E-001	-2.5860652E-001	-8.817477054765708E-004	2.000000000000000E+000	-3.1840584E-005	2.2802571E-007
2	1	0	1	1	3.550923910296115E+002	-2.5511855E-001	-2.5528499E-001	-8.427384849953022E-004	2.000000000000000E+000	-3.1868134E-005	2.1513848E-007
2	1	0	1	1	3.551255910287728E+002	-2.5179982E-001	-2.5196996E-001	-7.991016442314546E-004	2.000000000000000E+000	-3.1894142E-005	2.0134961E-007
2	1	0	0	1	3.551589910279290E+002	-2.4846108E-001	-2.4864374E-001	-7.550442461999613E-004	2.000000000000000E+000	-3.1918840E-005	1.8773703E-007
2	1	0	1	1	3.551922910270878E+002	-2.4512902E-001	-2.4529903E-001	-7.068239867767737E-004	2.000000000000000E+000	-3.1941949E-005	1.7338324E-007
2	1	0	1	1	3.552255910262465E+002	-2.4179694E-001	-2.4195753E-001	-6.561663541126287E-004	2.000000000000000E+000	-3.1963373E-005	1.5876439E-007
2	1	0	0	1	3.552589910254028E+002	-2.3845823E-001	-2.3861282E-001	-6.066061867009169E-004	2.000000000000000E+000	-3.1983203E-005	1.4474401E-007
2	1	0	0	1	3.552921910245641E+002	-2.3513949E-001	-2.3530932E-001	-5.518039978583272E-004	2.000000000000000E+000	-3.2001164E-005	1.2984462E-007
2	1	0	1	1	3.553255910237203E+002	-2.3180076E-001	-2.3199756E-001	-4.960580163687056E-004	2.000000000000000E+000	-3.2017389E-005	1.1508426E-007
2	1	0	0	1	3.553588910228791E+002	-2.2847092E-001	-2.2864082E-001	-4.349265347755311E-004	2.000000000000000E+000	-3.2031618E-005	9.9441962E-008
2	1	0	0	1	3.553921910220379E+002	-2.2513664E-001	-2.2532240E-001	-3.715844689435878E-004	2.000000000000000E+000	-3.2043772E-005	8.3726306E-008
2	1	0	1	1	3.554405910208152E+002	-2.2029848E-001	-2.2041266E-001	-2.576645471178106E-004	2.000000000000000E+000	-3.2058408E-005	5.6792526E-008
2	1	0	1	1	3.554887910195976E+002	-2.1548031E-001	-2.1560827E-001	-1.476417548470907E-004	2.000000000000000E+000	-3.2069569E-005	3.1832784E-008
2	1	0	0	1	3.555221910187538E+002	-2.1214157E-001	-2.1228263E-001	-7.053785845827177E-005	2.000000000000000E+000	-3.2072767E-005	1.4973962E-008
2	1	0	1	1	3.555554910179126E+002	-2.0880726E-001	-2.0890212E-001	1.216771150742258E-005	2.000000000000000E+000	-3.2073291E-005	2.5418607E-009
2	1	0	1	1	3.555887910170713E+002	-2.0547745E-001	-2.0558695E-001	8.936376863402965E-005	2.000000000000000E+000	-3.2071137E-005	1.8372026E-008
2	1	0	0	1	3.556221910162276E+002	-2.0213872E-001	-2.0224357E-001	1.734279844639013E-004	2.000000000000000E+000	-3.2066280E-005	3.5074695E-008
2	1	0	0	1	3.556553910153889E+002	-1.9882001E-001	-1.9891791E-001	2.612381389954627E-004	2.000000000000000E+000	-3.2058604E-005	5.1964946E-008
2	1	0	1	1	3.556887910145451E+002	-1.9548129E-001	-1.9559376E-001	3.459148144618132E-004	2.000000000000000E+000	-3.2048010E-005	6.7658782E-008
2	1	0	0	1	3.557220910137039E+002	-1.9214919E-001	-1.9224915E-001	4.350431404381173E-004	2.000000000000000E+000	-3.2034557E-005	8.3636671E-008
2	1	0	0	1	3.557553910128627E+002	-1.8881714E-001	-1.8892084E-001	5.177676376937335E-004	2.000000000000000E+000	-3.2018233E-005	9.7817100E-008
2	1	0	1	1	3.557887910120189E+002	-1.8547840E-001	-1.8560585E-001	6.045765635038468E-004	2.000000000000000E+000	-3.1999039E-005	1.1221295E-007
2	1	0	1	1	3.558219910111802E+002	-1.8215968E-001	-1.8226710E-001	6.872410265013631E-004	2.000000000000000E+000	-3.1977142E-005	1.2526142E-007
2	1	0	0	1	3.558553910103365E+002	-1.7882095E-001	-1.7891243E-001	7.665485844012866E-004	2.000000000000000E+000	-3.1952426E-005	1.3714507E-007
2	1	0	1	1	3.558886910094952E+002	-1.7549112E-001	-1.7556493E-001	8.362028886262692E-004	2.000000000000000E+000	-3.1925298E-005	1.4680791E-007
2	1	0	1	1	3.559219910086540E+002	-1.7215683E-001	-1.7222923E-001	9.044079859652113E-004	2.000000000000000E+000	-3.1895841E-005	1.5576549E-007
2	1	0	0	1	3.559553910078102E+002	-1.6881810E-001	-1.6889638E-001	9.607035598781805E-004	2.000000000000000E+000	-3.1864267E-005	1.6225935E-007
2	1	0	0	1	3.560052910065497E+002	-1.6382983E-001	-1.6393800E-001	1.017750960573934E-003	2.000000000000000E+000	-3.1813168E-005	1.6684805E-007
2	1	0	0	1	3.560553910052840E+002	-1.5882193E-001	-1.5894051E-001	1.070289057733374E-003	2.000000000000000E+000	-3.1759573E-005	1.7011229E-007
2	1	0	0	1	3.560885910044453E+002	-1.5549652E-001	-1.5559149E-001	1.101408330070157E-003	2.000000000000000E+000	-3.1722269E-005	1.7136976E-007
2	1	0	1	1	3.561219910036016E+002	-1.5215780E-001	-1.5228418E-001	1.118074593475651E-003	2.000000000000000E+000	-3.1683947E-005	1.7026507E-007
2	1	0	1	1	3.561551910027629E+002	-1.4883904E-001	-1.4895597E-001	1.131824116016138E-003	2.000000000000000E+000	-3.1645362E-005	1.6859197E-007
2	1	0	0	1	3.561885910019191E+002	-1.4550033E-001	-1.4562742E-001	1.136815960329565E-003	2.000000000000000E+000	-3.1606247E-005	1.6555158E-007
2	1	0	1	1	3.562219910010754E+002	-1.4216159E-001	-1.4227334E-001	1.133724351907234E-003	2.000000000000000E+000	-3.1567095E-005	1.6129874E-007
2	1	0	1	1	3.562551910002367E+002	-1.3883621E-001	-1.3896549E-001	1.132433180259625E-003	2.000000000000000E+000	-3.1528256E-005	1.5736913E-007
2	1	0	0	1	3.562885909993929E+002	-1.3549747E-001	-1.3558950E-001	1.121964828622965E-003	2.000000000000000E+000	-3.1489410E-005	1.5212665E-007
2	1	0	0	1	3.563217909985542E+002	-1.3217874E-001	-1.3228527E-001	1.106164235022376E-003	2.000000000000000E+000	-3.1451211E-005	1.4632923E-007
2	1	0	1	1	3.563551909977105E+002	-1.2884000E-001	-1.2895627E-001	1.090715132249221E-003	2.000000000000000E+000	-3.1413310E-005	1.4065456E-007
2	1	0	0	1	3.563885909968667E+002	-1.2550128E-001	-1.2560047E-001	1.072856621598207E-003	2.000000000000000E+000	-3.1376007E-005	1.3475130E-007
2	1	0	0	1	3.564217909960280E+002	-1.2217810E-001	-1.2227248E-001	1.052379846074068E-003	2.000000000000000E+000	-3.1339543E-005	1.2867710E-007
2	1	0	1	1	3.564551909951842E+002	-1.1883716E-001	-1.1893383E-001	1.024388428132045E-003	2.000000000000000E+000	-3.1303651E-005	1.2183445E-007
2	1	0	1	1	3.564883909943455E+002	-1.1551841E-001	-1.1559713E-001	1.005747239477283E-003	2.000000000000000E+000	-3.1268763E-005	1.1626150E-007
2	1	0	0	1	3.565217909935018E+002	-1.1217968E-001	-1.1226965E-001	9.767524915123794E-004	2.000000000000000E+000	-3.1234460E-005	1.0965966E-007
2	1	0	1	1	3.565551909926580E+002	-1.0884096E-001	-1.0893303E-001	9.551596810167574E-004	2.000000000000000E+000	-3.1201020E-005	1.0404844E-007
2	1	0	1	1	3.565883909918193E+002	-1.0552000E-001	-1.0559742E-001	9.325841017198359E-004	2.000000000000000E+000	-3.1168493E-005	9.8478473E-008
2	1	0	0	1	3.566217909909756E+002	-1.0217683E-001	-1.0227828E-001	9.107846685125296E-004	2.000000000000000E+000	-3.1136507E-005	9.3153496E-008
2	1	0	0	1	3.566549909901369E+002	-9.8858096E-002	-9.8961361E-002	8.881469774361791E-004	2.000000000000000E+000	-3.1105450E-005	8.7892232E-008
2	1	0	1	1	3.566883909892931E+002	-9.5519371E-002	-9.5633529E-002	8.676735221174407E-004	2.000000000000000E+000	-3.1074924E-005	8.2978680E-008
2	1	0	0	1	3.567217909884494E+002	-9.2180640E-002	-9.2269704E-002	8.505016821975502E-004	2.000000000000000E+000	-3.1045020E-005	7.8475537E-008
2	1	0	0	1	3.567549909876107E+002	-8.8861905E-002	-8.8973731E-002	8.296736928726494E-004	2.000000000000000E+000	-3.1015923E-005	7.3819166E-008
2	1	0	1	1	3.567883909867669E+002	-8.5516520E-002	-8.5638717E-002	8.164200269163355E-004	2.000000000000000E+000	-3.0987245E-005	6.9917164E-008
2	1	0	1	1	3.568215909859282E+002	-8.2197778E-002	-8.2329571E-002	8.001358095053625E-004	2.000000000000000E+000	-3.0959251E-005	6.5874836E-008
2	1	0	0	1	3.568549909850844E+002	-7.8859061E-002	-7.8994066E-002	7.841862104450443E-004	2.000000000000000E+000	-3.0931580E-005	6.1946054E-008
2	1	0	1	1	3.568883909842407E+002	-7.5520329E-002	-7.5651132E-002	7.703697438032810E-004	2.000000000000000E+000	-3.0904404E-005	5.8279344E-008
2	1	0	1	1	3.569215909834020E+002	-7.2201602E-002	-7.2320685E-002	7.598265650476273E-004	2.000000000000000E+000	-3.0877796E-005	5.4951176E-008
2	1	0	0	1	3.569549909825582E+002	-6.8858422E-002	-6.8971425E-002	7.464595156677564E-004	2.000000000000000E+000	-3.0851435E-005	5.1484378E-008
2	1	0	0	1	3.569881909817195E+002	-6.5537468E-002	-6.5668598E-002	7.345592793973534E-004	2.000000000000000E+000	-3.0825646E-005	4.8237478E-008
2	1	0	1	1	3.570215909808758E+002	-6.2198736E-002	-6.2310521E-002	7.245582817914653E-004	2.000000000000000E+000	-3.0800085E-005	4.5147605E-008
2	1	0	0	1	3.570549909800320E+002	-5.8860011E-002	-5.8998730E-002	7.158557023299022E-004	2.000000000000000E+000	-3.0774834E-005	4.2234579E-008
2	1	0	0	1	3.570881909791933E+002	-5.5541273E-002	-5.5679154E-002	7.066867850665359E-004	2.000000000000000E+000	-3.0750020E-005	3.9347722E-008
2	1	0	1	1	3.571215909783496E+002	-5.2198108E-002	-5.2323416E-002	6.995059104937592E-004	2.000000000000000E+000	-3.0725318E-005	3.6600539E-008
2	1	0	1	1	3.571547909775109E+002	-4.8877150E-002	-4.9000721E-002	6.926121501547415E-004	2.000000000000000E+000	-3.0700998E-005	3.3938495E-008
2	1	0	0	1	3.571881909766671E+002	-4.5538418E-002	-4.5671877E-002	6.856406968344594E-004	2.000000000000000E+000	-3.0676780E-005	3.1314496E-008
2	1	0	1	1	3.572215909758233E+002	-4.2199694E-002	-4.2329136E-002	6.787668778701203E-004	2.000000000000000E+000	-3.0652798E-005	2.8731616E-008
2	1	0	1	1	3.572547909749846E+002	-3.8880959E-002	-3.8986392E-002	6.757979097016704E-004	2.000000000000000E+000	-3.0629104E-005	2.6346923E-008
2	1	0	0	1	3.572881909741409E+002	-3.5540011E-002	-3.5639934E-002	6.679136255897233E-004	2.000000000000000E+000	-3.0605464E-005	2.3804398E-008
2	1	0	0	1	3.573213909733022E+002	-3.2216836E-002	-3.2326031E-002	6.648411591083508E-004	2.000000000000000E+000	-3.0582134E-005	2.1491676E-008
2	1	0	1	1	3.573547909724584E+002	-2.8878108E-002	-2.8982343E-002	6.605056966307345E-004	2.000000000000000E+000	-3.0558804E-005	1.9143004E-008
2	1	0	0	1	3.573881909716147E+002	-2.5539381E-002	-2.5645001E-002	6.584413326170249E-004	2.000000000000000E+000	-3.0535586E-005	1.6885728E-008
2	1	0	0	1	3.574213909707760E+002	-2.2220647E-002	-2.2314664E-002	6.557694061592439E-004	2.000000000000000E+000	-3.0512600E-005	1.4633274E-008
2	1	0	1	1	3.574547909699322E+002	-1.8881917E-002	-1.8999148E-002	6.517859636746646E-004	2.000000000000000E+000	-3.0489593E-005	1.2383378E-008
2	1	0	1	1	3.574879909690935E+002	-1.5556518E-002	-1.5659591E-002	6.493708047249462E-004	2.000000000000000E+000	-3.0466805E-005	1.0168882E-008
2	1	0	0	1	3.575213909682498E+002	-1.2217792E-002	-1.2336951E-002	6.461529300024783E-004	2.000000000000000E+000	-3.0443976E-005	7.9715567E-009
2	1	0	1	1	3.575547909674060E+002	-8.8790646E-003	-9.0079643E-003	6.460581354541459E-004	2.000000000000000E+000	-3.0421217E-005	5.8196687E-009
2	1	0	1	1	3.575879909665673E+002	-5.5603296E-003	-5.6707119E-003	6.426328036630135E-004	2.000000000000000E+000	-3.0398633E-005	3.6441854E-009
2	1	0	0	1	3.576213909657235E+002	-2.2216015E-003	-2.3465198E-003	6.408728438651035E-004	2.000000000000000E+000	-3.0376004E-005	1.5038208E-009
2	1	0	1	1	3.576546909648823E+002	1.1250470E-003	9.7289204E-004	6.420615898023426E-004	2.000000000000000E+000	-3.0353454E-005	6.2465660E-010
2	1	0	1	1	3.576879909640411E+002	4.4425228E-003	4.3434235E-003	6.403520498928714E-004	2.000000000000000E+000	-3.0330892E-005	2.7813201E-009
2	1	0	0	1	3.577213909631973E+002	7.7812490E-003	7.6906215E-003	6.399035291205666E-004	2.000000000000000E+000	-3.0308329E-005	4.9212558E-009
2	1	0	0	1	3.577545909623586E+002	1.1099982E-002	1.1020433E-002	6.395225753267697E-004	2.000000000000000E+000	-3.0285904E-005	7.0478157E-009
2	1	0	1	1	3.577879909615149E+002	1.4438707E-002	1.4369818E-002	6.385666262792283E-004	2.000000000000000E+000	-3.0263347E-005	9.1760866E-009
2	1	0	0	1	3.578212909606737E+002	1.7770769E-002	1.7683242E-002	6.391705274272970E-004	2.000000000000000E+000	-3.0240875E-005	1.1302607E-008
2	1	0	0	1	3.578545909598324E+002	2.1102831E-002	2.1022510E-002	6.396275690645722E-004	2.000000000000000E+000	-3.0218385E-005	1.3446577E-008
2	1	0	1	1	3.578879909589887E+002	2.4441557E-002	2.4360843E-002	6.393801581483175E-004	2.000000000000000E+000	-3.0195853E-005	1.5575839E-008
2	1	0	1	1	3.579211909581500E+002	2.7760290E-002	2.7679348E-002	6.403876908195683E-004	2.000000000000000E+000	-3.0173404E-005	1.7725514E-008
2	1	0	0	1	3.579545909573062E+002	3.1099018E-002	3.0998975E-002	6.407706214182959E-004	2.000000000000000E+000	-3.0150806E-005	1.9863233E-008
2	1	0	1	1	3.579878909564650E+002	3.4428842E-002	3.4349024E-002	6.409977381705585E-004	2.000000000000000E+000	-3.0128247E-005	2.2017646E-008
2	1	0	1	1	3.580211909556238E+002	3.7763141E-002	3.7678372E-002	6.419426586526940E-004	2.000000000000000E+000	-3.0105661E-005	2.4187354E-008
2	1	0	0	1	3.580545909547800E+002	4.1101865E-002	4.1002791E-002	6.424210740873677E-004	2.000000000000000E+000	-3.0083005E-005	2.6341057E-008
2	1	0	0	1	3.580877909539413E+002	4.4420596E-002	4.4342253E-002	6.451495167278162E-004	2.000000000000000E+000	-3.0060419E-005	2.8607383E-008
2	1	0	1	1	3.581211909530975E+002	4.7759321E-002	4.7715336E-002	6.459767492843715E-004	2.000000000000000E+000	-3.0037623E-005	3.0822999E-008
2	1	0	0	1	3.581544909522563E+002	5.1089145E-002	5.1044550E-002	6.475018898710987E-004	2.000000000000000E+000	-3.0014884E-005	3.3051442E-008
2	1	0	0	1	3.581877909514151E+002	5.4423448E-002	5.4387067E-002	6.501447454879596E-004	2.000000000000000E+000	-2.9992059E-005	3.5359466E-008
2	1	0	1	1	3.582211909505713E+002	5.7762168E-002	5.7718076E-002	6.508487208567969E-004	2.000000000000000E+000	-2.9969120E-005	3.7565737E-008
2	1	0	1	1	3.582543909497326E+002	6.1080907E-002	6.1039310E-002	6.518267853432382E-004	2.000000000000000E+000	-2.9946284E-005	3.9787057E-008
2	1	0	0	1	3.582877909488889E+002	6.4419635E-002	6.4364985E-002	6.548894330855410E-004	2.000000000000000E+000	-2.9923240E-005	4.2151949E-008
2	1	0	1	1	3.583211909480451E+002	6.7758352E-002	6.7709096E-002	6.576036789691132E-004	2.000000000000000E+000	-2.9900120E-005	4.4525752E-008
2	1	0	1	1	3.583543909472064E+002	7.1083754E-002	7.1041189E-002	6.602153512223485E-004	2.000000000000000E+000	-2.9877050E-005	4.6902482E-008
2	1	0	0	1	3.583877909463627E+002	7.4422486E-002	7.4361257E-002	6.614980629806432E-004	2.000000000000000E+000	-2.9853791E-005	4.9189829E-008
2	1	0	0	1	3.584209909455240E+002	7.7741213E-002	7.7681459E-002	6.644653342812445E-004	2.000000000000000E+000	-2.9830564E-005	5.1616638E-008
2	1	0	1	1	3.584543909446802E+002	8.1079938E-002	8.1004851E-002	6.655520146375254E-004	2.000000000000000E+000	-2.9807137E-005	5.3912942E-008
2	1	0	0	1	3.584877909438364E+002	8.4418677E-002	8.4343947E-002	6.694961489120046E-004	2.000000000000000E+000	-2.9783636E-005	5.6467947E-008
2	1	0	0	1	3.585209909429977E+002	8.7741852E-002	8.7651119E-002	6.710296944301194E-004	2.000000000000000E+000	-2.9760193E-005	5.8816504E-008
2	1	0	1	1	3.585543909421540E+002	9.1082789E-002	9.0995580E-002	6.740140770772184E-004	2.000000000000000E+000	-2.9736526E-005	6.1332301E-008
2	1	0	1	1	3.585875909413153E+002	9.4401523E-002	9.4332419E-002	6.788073663658517E-004	2.000000000000000E+000	-2.9712872E-005	6.4033543E-008
2	1	0	0	1	3.586209909404715E+002	9.7740248E-002	9.7660609E-002	6.813043811403274E-004	2.000000000000000E+000	-2.9688950E-005	6.6536600E-008
2	1	0	1	1	3.586393909400067E+002	9.9572904E-002	9.9516995E-002	6.817417840162907E-004	2.000000000000000E+000	-2.9675746E-005	6.7844894E-008
2	0	0	0	1	3.586431909399107E+002	9.9906117E-002	9.9852741E-002	6.770415771329263E-004	2.000000000000000E+000	-2.9673047E-005	6.7604454E-008
2	0	0	1	1	3.586615909394459E+002	9.8073445E-002	9.7992279E-002	4.313630287240940E-004	2.000000000000000E+000	-2.9665414E-005	4.2270248E-008
2	0	0	0	1	3.586949909386021E+002	9.4734728E-002	9.4649807E-002	3.423536848923624E-004	2.000000000000000E+000	-2.9653838E-005	3.2403712E-008
2	0	0	0	1	3.587281909377634E+002	9.1416001E-002	9.1337591E-002	2.843896126143112E-004	2.000000000000000E+000	-2.9644705E-005	2.5975462E-008
2	0	0	1	1	3.587615909369197E+002	8.8075049E-002	8.7972820E-002	2.333457558142988E-004	2.000000000000000E+000	-2.9637338E-005	2.0528084E-008
2	0	0	1	1	3.587947909360810E+002	8.4751867E-002	8.4668145E-002	1.868221864606312E-004	2.000000000000000E+000	-2.9631594E-005	1.5817887E-008
2	0	0	0	1	3.588581909344794E+002	7.8414291E-002	7.8293823E-002	8.301392998705335E-005	2.000000000000000E+000	-2.9622504E-005	6.4994778E-009
2	0	0	1	1	3.588915909336356E+002	7.5075559E-002	7.4945755E-002	4.336470099145916E-005	2.000000000000000E+000	-2.9620840E-005	3.2500003E-009
2	0	0	1	1	3.589247909327969E+002	7.1756832E-002	7.1630828E-002	7.166123217901220E-006	2.000000000000000E+000	-2.9620442E-005	5.1331533E-010
2	0	0	0	1	3.589581909319531E+002	6.8411440E-002	6.8281688E-002	-2.815428787212898E-005	2.000000000000000E+000	-2.9621235E-005	1.9224222E-009
2	0	0	0	1	3.589913909311144E+002	6.5092705E-002	6.4998619E-002	-6.198988467910258E-005	2.000000000000000E+000	-2.9623172E-005	4.0292569E-009
2	0	0	1	1	3.590247909302707E+002	6.1753985E-002	6.1661132E-002	-9.500590059394187E-005	2.000000000000000E+000	-2.9626230E-005	5.8581713E-009
2	0	0	0	1	3.590581909294269E+002	5.8415256E-002	5.8313176E-002	-1.270157814458255E-004	2.000000000000000E+000	-2.9630373E-005	7.4066935E-009
2	0	0	0	1	3.590913909285882E+002	5.5096522E-002	5.4995500E-002	-1.585943820400305E-004	2.000000000000000E+000	-2.9635547E-005	8.7219769E-009
2	0	0	1	1	3.591247909277445E+002	5.1753353E-002	5.1635608E-002	-1.889923355271024E-004	2.000000000000000E+000	-2.9641789E-005	9.7587343E-009
2	0	0	1	1	3.591579909269058E+002	4.8432399E-002	4.8321269E-002	-2.173864259131940E-004	2.000000000000000E+000	-2.9648974E-005	1.0504388E-008
2	0	0	0	1	3.591913909260620E+002	4.5093674E-002	4.4960074E-002	-2.487054709015663E-004	2.000000000000000E+000	-2.9657202E-005	1.1181816E-008
2	0	0	1	1	3.592247909252183E+002	4.1754950E-002	4.1603997E-002	-2.752372203758573E-004	2.000000000000000E+000	-2.9666382E-005	1.1450968E-008
2	0	0	1	1	3.592579909243796E+002	3.8436219E-002	3.8286325E-002	-3.021548737709703E-004	2.000000000000000E+000	-2.9676405E-005	1.1568400E-008
2	0	0	0	1	3.592913909235358E+002	3.5093047E-002	3.4954853E-002	-3.306804861798192E-004	2.000000000000000E+000	-2.9687406E-005	1.1558888E-008
2	0	0	0	1	3.593245909226971E+002	3.1772096E-002	3.1609833E-002	-3.564017198052030E-004	2.000000000000000E+000	-2.9699253E-005	1.1265799E-008
2	0	0	1	1	3.593579909218533E+002	2.8433369E-002	2.8280772E-002	-3.825544234758926E-004	2.000000000000000E+000	-2.9712022E-005	1.0818934E-008
2	0	0	0	1	3.593913909210096E+002	2.5094641E-002	2.4940021E-002	-4.084487813580161E-004	2.000000000000000E+000	-2.9725652E-005	1.0186722E-008
2	0	0	0	1	3.594245909201709E+002	2.1775907E-002	2.1631410E-002	-4.321084015201544E-004	2.000000000000000E+000	-2.9740042E-005	9.3471142E-009
2	0	0	1	1	3.594579909193271E+002	1.8434960E-002	1.8289236E-002	-4.576912356626245E-004	2.000000000000000E+000	-2.9755336E-005	8.3708231E-009
2	0	0	1	1	3.594911909184884E+002	1.5111785E-002	1.4983016E-002	-4.814754632611258E-004	2.000000000000000E+000	-2.9771343E-005	7.2139548E-009
2	0	0	0	1	3.595245909176447E+002	1.1773057E-002	1.1616057E-002	-5.061792834338249E-004	2.000000000000000E+000	-2.9788285E-005	5.8798073E-009
2	0	0	1	1	3.595579909168009E+002	8.4343320E-003	8.2623353E-003	-5.300906744526383E-004	2.000000000000000E+000	-2.9806013E-005	4.3797868E-009
2	0	0	1	1	3.595911909159622E+002	5.1155989E-003	4.9445932E-003	-5.525091257570468E-004	2.000000000000000E+000	-2.9824407E-005	2.7319329E-009
2	0	0	0	1	3.596245909151185E+002	1.7768734E-003	1.5889001E-003	-5.771899064967788E-004	2.000000000000000E+000	-2.9843703E-005	9.1709712E-010
2	0	0	0	1	3.596577909142798E+002	-1.5485246E-003	-1.7594293E-003	-5.987224002072071E-004	2.000000000000000E+000	-2.9863648E-005	1.0534098E-009
2	0	0	1	1	3.596911909134360E+002	-4.8872521E-003	-5.0864951E-003	-6.198027689054107E-004	2.000000000000000E+000	-2.9884426E-005	3.1526237E-009
2	0	0	0	1	3.597245909125922E+002	-8.2259793E-003	-8.4364675E-003	-6.429074467343048E-004	2.000000000000000E+000	-2.9905936E-005	5.4238676E-009
2	0	0	0	1	3.597577909117535E+002	-1.1544715E-002	-1.1754642E-002	-6.633829614063995E-004	2.000000000000000E+000	-2.9928047E-005	7.7978290E-009
2	0	0	1	1	3.597911909109098E+002	-1.4883442E-002	-1.5090700E-002	-6.851800162891131E-004	2.000000000000000E+000	-2.9950996E-005	1.0339846E-008
2	0	0	0	1	3.598244909100686E+002	-1.8217741E-002	-1.8440442E-002	-7.068139063295103E-004	2.000000000000000E+000	-2.9974588E-005	1.3033961E-008
2	0	0	0	1	3.598577909092273E+002	-2.1547569E-002	-2.1755425E-002	-7.262381133666517E-004	2.000000000000000E+000	-2.9998868E-005	1.5799619E-008
2	0	0	1	1	3.598911909083836E+002	-2.4886297E-002	-2.5097080E-002	-7.473125891879640E-004	2.000000000000000E+000	-3.0023892E-005	1.8755363E-008
2	0	0	1	1	3.599243909075449E+002	-2.8205030E-002	-2.8396372E-002	-7.677008478209164E-004	2.000000000000000E+000	-3.0049463E-005	2.1799918E-008
2	0	0	0	1	3.599577909067011E+002	-3.1543758E-002	-3.1743720E-002	-7.889335479127060E-004	2.000000000000000E+000	-3.0075893E-005	2.5043686E-008
2	0	0	1	1	3.599910909058599E+002	-3.4875818E-002	-3.5079066E-002	-8.086412948869470E-004	2.000000000000000E+000	-3.0102899E-005	2.8366381E-008
2	0	0	1	1	3.600243909050187E+002	-3.8207885E-002	-3.8398705E-002	-8.281676880317317E-004	2.000000000000000E+000	-3.0130568E-005	3.1800568E-008
2	0	0	0	1	3.600577909041749E+002	-4.1546613E-002	-4.1765299E-002	-8.488419516490646E-004	2.000000000000000E+000	-3.0158984E-005	3.5452139E-008
2	0	0	0	1	3.600909909033362E+002	-4.4865347E-002	-4.5101624E-002	-8.679923197174831E-004	2.000000000000000E+000	-3.0187901E-005	3.9147864E-008
2	0	0	1	1	3.601243909024925E+002	-4.8204079E-002	-4.8422772E-002	-8.861397235307711E-004	2.000000000000000E+000	-3.0217610E-005	4.2909342E-008
2	0	0	0	1	3.601576909016512E+002	-5.1533904E-002	-5.1774777E-002	-9.064648608289212E-004	2.000000000000000E+000	-3.0247880E-005	4.6932016E-008
2	0	0	0	1	3.601909909008100E+002	-5.4868203E-002	-5.5108178E-002	-9.247278331814520E-004	2.000000000000000E+000	-3.0278807E-005	5.0960068E-008
2	0	0	1	1	3.602243908999662E+002	-5.8206931E-002	-5.8434866E-002	-9.432394145982518E-004	2.000000000000000E+000	-3.0310426E-005	5.5118068E-008
2	0	0	1	1	3.602575908991275E+002	-6.1525658E-002	-6.1757226E-002	-9.625168463093386E-004	2.000000000000000E+000	-3.0342473E-005	5.9442371E-008
2	0	0	0	1	3.602909908982838E+002	-6.4864390E-002	-6.5071993E-002	-9.809122500101476E-004	2.000000000000000E+000	-3.0375342E-005	6.3829916E-008
2	0	0	1	1	3.603409908970207E+002	-6.9870919E-002	-7.0032172E-002	-9.939296757274889E-004	2.000000000000000E+000	-3.0426034E-005	6.9607054E-008
2	0	0	0	1	3.603909908957576E+002	-7.4867249E-002	-7.5017326E-002	-1.012183939131281E-003	2.000000000000000E+000	-3.0477668E-005	7.5931332E-008
2	0	0	0	1	3.604241908949189E+002	-7.8185983E-002	-7.8341275E-002	-1.029481031341498E-003	2.000000000000000E+000	-3.0512771E-005	8.0650857E-008
2	0	0	1	1	3.604575908940751E+002	-8.1524707E-002	-8.1663333E-002	-1.048491562988027E-003	2.000000000000000E+000	-3.0548712E-005	8.5623313E-008
2	0	0	0	1	3.604909908932314E+002	-8.4863424E-002	-8.5002020E-002	-1.066222490103599E-003	2.000000000000000E+000	-3.0585248E-005	9.0631069E-008
2	0	0	0	1	3.605241908923927E+002	-8.8188834E-002	-8.8321693E-002	-1.085811297276380E-003	2.000000000000000E+000	-3.0622185E-005	9.5900695E-008
2	0	0	1	1	3.605575908915489E+002	-9.1527559E-002	-9.1644831E-002	-1.104534183856840E-003	2.000000000000000E+000	-3.0659972E-005	1.0122485E-007
2	0	0	1	1	3.605907908907102E+002	-9.4846286E-002	-9.4977543E-002	-1.124020398714894E-003	2.000000000000000E+000	-3.0698186E-005	1.0675669E-007
2	0	0	0	1	3.606241908898664E+002	-9.8185010E-002	-9.8320320E-002	-1.142779914872431E-003	2.000000000000000E+000	-3.0737257E-005	1.1235849E-007
2	0	0	1	1	3.606575908890227E+002	-1.0152375E-001	-1.0166593E-001	-1.161387076940123E-003	2.000000000000000E+000	-3.0776962E-005	1.1807349E-007
2	0	0	1	1	3.606907908881840E+002	-1.0484692E-001	-1.0496060E-001	-1.181131803219883E-003	2.000000000000000E+000	-3.0817067E-005	1.2397230E-007
2	0	0	0	1	3.607241908873402E+002	-1.0818788E-001	-1.0829759E-001	-1.201274203450778E-003	2.000000000000000E+000	-3.0858078E-005	1.3009510E-007
2	0	0	0	1	3.607573908865015E+002	-1.1150660E-001	-1.1162357E-001	-1.221155872017663E-003	2.000000000000000E+000	-3.0899519E-005	1.3630978E-007
2	0	0	1	1	3.607907908856578E+002	-1.1484534E-001	-1.1496968E-001	-1.243589651621059E-003	2.000000000000000E+000	-3.0941901E-005	1.4297510E-007
2	0	0	0	1	3.608241908848140E+002	-1.1818407E-001	-1.1831310E-001	-1.264445012695627E-003	2.000000000000000E+000	-3.0985011E-005	1.4960041E-007
2	0	0	0	1	3.608573908839753E+002	-1.2150502E-001	-1.2162621E-001	-1.286992046519081E-003	2.000000000000000E+000	-3.1028594E-005	1.5653195E-007
2	0	0	1	1	3.608907908831316E+002	-1.2484819E-001	-1.2497801E-001	-1.311019531378944E-003	2.000000000000000E+000	-3.1073199E-005	1.6384861E-007
2	0	0	1	1	3.609239908822929E+002	-1.2816693E-001	-1.2833534E-001	-1.335342664926967E-003	2.000000000000000E+000	-3.1118365E-005	1.7137165E-007
2	0	0	0	1	3.609573908814491E+002	-1.3150565E-001	-1.3165393E-001	-1.358705346531308E-003	2.000000000000000E+000	-3.1164549E-005	1.7887891E-007
2	0	0	1	1	3.609907908806053E+002	-1.3484438E-001	-1.3498665E-001	-1.387386060043898E-003	2.000000000000000E+000	-3.1211614E-005	1.8727860E-007
2	0	0	1	1	3.610239908797666E+002	-1.3816312E-001	-1.3833414E-001	-1.416684974554102E-003	2.000000000000000E+000	-3.1259380E-005	1.9597590E-007
2	0	0	0	1	3.610573908789229E+002	-1.4150850E-001	-1.4165677E-001	-1.446759758686380E-003	2.000000000000000E+000	-3.1308406E-005	2.0494332E-007
2	0	0	0	1	3.610905908780842E+002	-1.4482725E-001	-1.4497675E-001	-1.479572666471037E-003	2.000000000000000E+000	-3.1358180E-005	2.1450364E-007
2	0	0	1	1	3.611239908772404E+002	-1.4816596E-001	-1.4831777E-001	-1.514176370476849E-003	2.000000000000000E+000	-3.1409400E-005	2.2457927E-007
2	0	0	0	1	3.611573908763967E+002	-1.5150471E-001	-1.5165499E-001	-1.550917736075688E-003	2.000000000000000E+000	-3.1461797E-005	2.3520441E-007
2	0	0	0	1	3.611905908755580E+002	-1.5482344E-001	-1.5496838E-001	-1.591855190703490E-003	2.000000000000000E+000	-3.1515207E-005	2.4668722E-007
2	0	0	1	1	3.612239908747142E+002	-1.5816882E-001	-1.5832695E-001	-1.637795671669190E-003	2.000000000000000E+000	-3.1570369E-005	2.5930720E-007
2	0	0	1	1	3.612571908738755E+002	-1.6148755E-001	-1.6165033E-001	-1.684617800885989E-003	2.000000000000000E+000	-3.1626758E-005	2.7231903E-007
2	0	0	0	1	3.612905908730318E+002	-1.6482630E-001	-1.6499855E-001	-1.735773974759015E-003	2.000000000000000E+000	-3.1685115E-005	2.8640019E-007
2	0	0	1	1	3.613239908721880E+002	-1.6816501E-001	-1.6832890E-001	-1.794951210893622E-003	2.000000000000000E+000	-3.1745312E-005	3.0214215E-007
2	0	0	1	1	3.613571908713493E+002	-1.7148376E-001	-1.7164619E-001	-1.854007259319551E-003	2.000000000000000E+000	-3.1807118E-005	3.1823328E-007
2	0	0	0	1	3.613905908705055E+002	-1.7482692E-001	-1.7497846E-001	-1.919128057523745E-003	2.000000000000000E+000	-3.1871379E-005	3.3580608E-007
2	0	0	0	1	3.614237908696668E+002	-1.7814787E-001	-1.7830515E-001	-1.990916926216514E-003	2.000000000000000E+000	-3.1937514E-005	3.5499073E-007
2	0	0	1	1	3.614571908688231E+002	-1.8148661E-001	-1.8164329E-001	-2.067204229757334E-003	2.000000000000000E+000	-3.2006537E-005	3.7549378E-007
2	0	0	0	1	3.614905908679793E+002	-1.8482533E-001	-1.8500185E-001	-2.146787448040819E-003	2.000000000000000E+000	-3.2078136E-005	3.9715965E-007
2	0	0	0	1	3.615237908671406E+002	-1.8814407E-001	-1.8833067E-001	-2.232264898923829E-003	2.000000000000000E+000	-3.2152086E-005	4.2040392E-007
2	0	0	1	1	3.615571908662969E+002	-1.9148502E-001	-1.9163932E-001	-2.322832048009364E-003	2.000000000000000E+000	-3.2229429E-005	4.4514596E-007
2	0	0	1	1	3.615903908654582E+002	-1.9480819E-001	-1.9495666E-001	-2.418645181751331E-003	2.000000000000000E+000	-3.2309417E-005	4.7153100E-007
2	0	0	0	1	3.616237908646144E+002	-1.9814691E-001	-1.9827692E-001	-2.518221353998852E-003	2.000000000000000E+000	-3.2393120E-005	4.9930520E-007
2	0	0	1	1	3.616571908637707E+002	-2.0148565E-001	-2.0162468E-001	-2.621622514082073E-003	2.000000000000000E+000	-3.2480220E-005	5.2858377E-007
2	0	0	1	1	3.616903908629320E+002	-2.0480438E-001	-2.0497678E-001	-2.727465467792669E-003	2.000000000000000E+000	-3.2570275E-005	5.5906708E-007
2	0	0	0	1	3.617237908620882E+002	-2.0814310E-001	-2.0830442E-001	-2.834822048877222E-003	2.000000000000000E+000	-3.2664426E-005	5.9050598E-007
2	0	0	0	1	3.617569908612495E+002	-2.1146850E-001	-2.1163069E-001	-2.947471863487781E-003	2.000000000000000E+000	-3.2761724E-005	6.2377552E-007
2	0	0	1	1	3.617903908604058E+002	-2.1480723E-001	-2.1497700E-001	-3.053179137749350E-003	2.000000000000000E+000	-3.2863234E-005	6.5636328E-007
2	0	0	0	1	3.618237908595620E+002	-2.1814595E-001	-2.1831670E-001	-3.156584839900320E-003	2.000000000000000E+000	-3.2968201E-005	6.8913522E-007
2	0	0	0	1	3.618569908587233E+002	-2.2146469E-001	-2.2164413E-001	-3.259016578786370E-003	2.000000000000000E+000	-3.3075976E-005	7.2234189E-007
2	0	0	1	1	3.618903908578795E+002	-2.2480342E-001	-2.2498770E-001	-3.355593435736848E-003	2.000000000000000E+000	-3.3187720E-005	7.5496723E-007
2	0	0	0	1	3.619236908570383E+002	-2.2813770E-001	-2.2832836E-001	-3.442901132810539E-003	2.000000000000000E+000	-3.3302189E-005	7.8611197E-007
2	0	0	0	1	3.619569908561971E+002	-2.3146755E-001	-2.3164710E-001	-3.531909486638909E-003	2.000000000000000E+000	-3.3419590E-005	8.1815659E-007
2	0	0	1	1	3.619903908553533E+002	-2.3480628E-001	-2.3499647E-001	-3.603325218007537E-003	2.000000000000000E+000	-3.3540004E-005	8.4676867E-007
2	0	0	1	1	3.620235908545146E+002	-2.3812503E-001	-2.3830445E-001	-3.671454871111091E-003	2.000000000000000E+000	-3.3662025E-005	8.7492401E-007
2	0	0	0	1	3.620569908536709E+002	-2.4146377E-001	-2.4162176E-001	-3.730010641539348E-003	2.000000000000000E+000	-3.3786891E-005	9.0125172E-007
2	0	0	1	1	3.620902908528296E+002	-2.4479581E-001	-2.4496251E-001	-3.776674403866378E-003	2.000000000000000E+000	-3.3913086E-005	9.2514364E-007
2	0	0	1	1	3.621235908519884E+002	-2.4812788E-001	-2.4830733E-001	-3.819264994176418E-003	2.000000000000000E+000	-3.4040801E-005	9.4835150E-007
2	0	0	0	1	3.621569908511447E+002	-2.5146657E-001	-2.5163689E-001	-3.847210486931509E-003	2.000000000000000E+000	-3.4170054E-005	9.6810004E-007
2	0	0	0	1	3.621901908503060E+002	-2.5478533E-001	-2.5496259E-001	-3.865796952239958E-003	2.000000000000000E+000	-3.4299279E-005	9.8563362E-007
2	0	0	1	1	3.622235908494622E+002	-2.5812405E-001	-2.5828311E-001	-3.875454717533477E-003	2.000000000000000E+000	-3.4429762E-005	1.0009645E-006
2	0	0	0	1	3.622568908486210E+002	-2.6145613E-001	-2.6160187E-001	-3.876614110080490E-003	2.000000000000000E+000	-3.4560035E-005	1.0141295E-006
2	0	0	0	1	3.622901908477797E+002	-2.6478821E-001	-2.6494399E-001	-3.878515928631209E-003	2.000000000000000E+000	-3.4690362E-005	1.0275895E-006
2	0	0	1	1	3.623235908469360E+002	-2.6812690E-001	-2.6829058E-001	-3.866725892013943E-003	2.000000000000000E+000	-3.4820936E-005	1.0374062E-006
2	0	0	1	1	3.623567908460973E+002	-2.7144563E-001	-2.7159846E-001	-3.852174157520355E-003	2.000000000000000E+000	-3.4950219E-005	1.0462445E-006
2	0	0	0	1	3.623901908452535E+002	-2.7478436E-001	-2.7494964E-001	-3.834499632363000E-003	2.000000000000000E+000	-3.5079775E-005	1.0542943E-006
2	0	0	1	1	3.624234908444123E+002	-2.7811420E-001	-2.7826509E-001	-3.815746306677456E-003	2.000000000000000E+000	-3.5208264E-005	1.0617890E-006
2	0	0	1	1	3.624567908435711E+002	-2.8144848E-001	-2.8159660E-001	-3.791880752461212E-003	2.000000000000000E+000	-3.5336125E-005	1.0677808E-006
2	0	0	0	1	3.624901908427273E+002	-2.8478721E-001	-2.8491181E-001	-3.762514072807754E-003	2.000000000000000E+000	-3.5463472E-005	1.0719847E-006
2	0	0	0	1	3.625233908418886E+002	-2.8810596E-001	-2.8825355E-001	-3.738088462619249E-003	2.000000000000000E+000	-3.5589190E-005	1.0775173E-006
2	0	0	1	1	3.625567908410449E+002	-2.9144469E-001	-2.9158708E-001	-3.712342222672846E-003	2.000000000000000E+000	-3.5714791E-005	1.0824710E-006
2	0	0	0	1	3.625901908402011E+002	-2.9478341E-001	-2.9493338E-001	-3.685870661898263E-003	2.000000000000000E+000	-3.5839537E-005	1.0870863E-006
2	0	0	0	1	3.626233908393624E+002	-2.9810879E-001	-2.9829195E-001	-3.662529281902124E-003	2.000000000000000E+000	-3.5962705E-005	1.0925030E-006
2	0	0	1	1	3.626567908385186E+002	-3.0144754E-001	-3.0163962E-001	-3.636444303060489E-003	2.000000000000000E+000	-3.6085778E-005	1.0968956E-006
2	0	0	1	1	3.626899908376799E+002	-3.0476630E-001	-3.0494505E-001	-3.612009792979935E-003	2.000000000000000E+000	-3.6207235E-005	1.1014645E-006
2	0	0	0	1	3.627233908368362E+002	-3.0810502E-001	-3.0828071E-001	-3.590270150420518E-003	2.000000000000000E+000	-3.6328689E-005	1.1068111E-006
2	0	0	1	1	3.627567908359924E+002	-3.1144375E-001	-3.1161693E-001	-3.568534693886578E-003	2.000000000000000E+000	-3.6449412E-005	1.1120159E-006
2	0	0	1	1	3.627899908351537E+002	-3.1476691E-001	-3.1493753E-001	-3.544125818513766E-003	2.000000000000000E+000	-3.6568683E-005	1.1161783E-006
2	0	0	0	1	3.628233908343100E+002	-3.1810784E-001	-3.1828475E-001	-3.525696552042733E-003	2.000000000000000E+000	-3.6687947E-005	1.1221755E-006
2	0	0	0	1	3.628565908334713E+002	-3.2142660E-001	-3.2160330E-001	-3.507433701301198E-003	2.000000000000000E+000	-3.6805883E-005	1.1280023E-006
2	0	0	1	1	3.628899908326275E+002	-3.2476529E-001	-3.2492951E-001	-3.490400534911130E-003	2.000000000000000E+000	-3.6923953E-005	1.1341341E-006
2	0	0	0	1	3.629233908317838E+002	-3.2810402E-001	-3.2826290E-001	-3.477239186559677E-003	2.000000000000000E+000	-3.7041536E-005	1.1414486E-006
2	0	0	0	1	3.629565908309451E+002	-3.3142498E-001	-3.3158499E-001	-3.459997418610340E-003	2.000000000000000E+000	-3.7157886E-005	1.1472832E-006
2	0	0	1	1	3.629899908301013E+002	-3.3476818E-001	-3.3493394E-001	-3.449089051929255E-003	2.000000000000000E+000	-3.7274494E-005	1.1552170E-006
2	0	0	1	1	3.630231908292626E+002	-3.3808690E-001	-3.3826986E-001	-3.439895231621685E-003	2.000000000000000E+000	-3.7390040E-005	1.1636129E-006
2	0	0	0	1	3.630565908284188E+002	-3.4142563E-001	-3.4162697E-001	-3.428161112269318E-003	2.000000000000000E+000	-3.7505968E-005	1.1711523E-006
2	0	0	1	1	3.630899908275751E+002	-3.4476435E-001	-3.4496775E-001	-3.416797056178665E-003	2.000000000000000E+000	-3.7621456E-005	1.1786848E-006
2	0	0	1	1	3.631231908267364E+002	-3.4808311E-001	-3.4827617E-001	-3.411500495696806E-003	2.000000000000000E+000	-3.7736023E-005	1.1881443E-006
2	0	0	0	1	3.631565908258926E+002	-3.5142848E-001	-3.5163817E-001	-3.404554501132764E-003	2.000000000000000E+000	-3.7851067E-005	1.1971713E-006
2	0	0	0	1	3.631897908250539E+002	-3.5474721E-001	-3.5496253E-001	-3.401247831945380E-003	2.000000000000000E+000	-3.7965267E-005	1.2073156E-006
2	0	0	1	1	3.632231908242102E+002	-3.5808596E-001	-3.5828328E-001	-3.395500264429113E-003	2.000000000000000E+000	-3.8080005E-005	1.2165510E-006
2	0	0	0	1	3.632565908233664E+002	-3.6142468E-001	-3.6161914E-001	-3.395143123542992E-003	2.000000000000000E+000	-3.8194637E-005	1.2277487E-006
2	0	0	0	1	3.632897908225277E+002	-3.6474344E-001	-3.6493057E-001	-3.393501757516917E-003	2.000000000000000E+000	-3.8308539E-005	1.2383925E-006
2	0	0	1	1	3.633231908216840E+002	-3.6808881E-001	-3.6825785E-001	-3.389932823155049E-003	2.000000000000000E+000	-3.8423037E-005	1.2483694E-006
2	0	0	1	1	3.633563908208453E+002	-3.7140751E-001	-3.7159157E-001	-3.391357772440332E-003	2.000000000000000E+000	-3.8536844E-005	1.2602000E-006
2	0	0	0	1	3.633897908200015E+002	-3.7474623E-001	-3.7491792E-001	-3.392989412198032E-003	2.000000000000000E+000	-3.8651364E-005	1.2720925E-006
2	0	0	1	1	3.634231908191578E+002	-3.7808496E-001	-3.7827468E-001	-3.391682972427652E-003	2.000000000000000E+000	-3.8765869E-005	1.2829878E-006
2	0	0	1	1	3.634563908183191E+002	-3.8140374E-001	-3.8159567E-001	-3.397942968408141E-003	2.000000000000000E+000	-3.8879796E-005	1.2966403E-006
2	0	0	0	1	3.634897908174753E+002	-3.8474688E-001	-3.8496041E-001	-3.401104769463582E-003	2.000000000000000E+000	-3.8994556E-005	1.3092907E-006
2	0	0	0	1	3.635229908166366E+002	-3.8806787E-001	-3.8827959E-001	-3.402656810713868E-003	2.000000000000000E+000	-3.9108723E-005	1.3211821E-006
2	0	0	1	1	3.635563908157928E+002	-3.9140657E-001	-3.9162350E-001	-3.408298588894662E-003	2.000000000000000E+000	-3.9223694E-005	1.3347698E-006
2	0	0	0	1	3.635897908149491E+002	-3.9474529E-001	-3.9496869E-001	-3.415792602269610E-003	2.000000000000000E+000	-3.9338891E-005	1.3491311E-006
2	0	0	0	1	3.636229908141104E+002	-3.9806405E-001	-3.9827311E-001	-3.414417998768210E-003	2.000000000000000E+000	-3.9453498E-005	1.3598709E-006
2	0	0	1	1	3.636563908132666E+002	-4.0140498E-001	-4.0162420E-001	-3.425117531318116E-003	2.000000000000000E+000	-3.9568971E-005	1.3756101E-006
2	0	0	1	1	3.636895908124279E+002	-4.0472814E-001	-4.0492636E-001	-3.431093341620263E-003	2.000000000000000E+000	-3.9684030E-005	1.3893401E-006
2	0	0	0	1	3.637229908115842E+002	-4.0806693E-001	-4.0826693E-001	-3.438828459432070E-003	2.000000000000000E+000	-3.9799990E-005	1.4039599E-006
2	0	0	1	1	3.637563908107404E+002	-4.1140565E-001	-4.1160429E-001	-3.446127565731774E-003	2.000000000000000E+000	-3.9916191E-005	1.4184409E-006
2	0	0	1	1	3.637895908099017E+002	-4.1472438E-001	-4.1492423E-001	-3.456326361629174E-003	2.000000000000000E+000	-4.0032006E-005	1.4341135E-006
2	0	0	0	1	3.638229908090580E+002	-4.1806310E-001	-4.1826767E-001	-3.467261749422138E-003	2.000000000000000E+000	-4.0148825E-005	1.4502435E-006
2	0	0	0	1	3.638561908082193E+002	-4.2138848E-001	-4.2160210E-001	-3.478339848198038E-003	2.000000000000000E+000	-4.0265273E-005	1.4664754E-006
2	0	0	1	1	3.638895908073755E+002	-4.2472723E-001	-4.2492187E-001	-3.485211972831706E-003	2.000000000000000E+000	-4.0382762E-005	1.4809428E-006
2	0	0	0	1	3.639229908065317E+002	-4.2806593E-001	-4.2827532E-001	-3.494734501189131E-003	2.000000000000000E+000	-4.0500563E-005	1.4967085E-006
2	0	0	0	1	3.639561908056930E+002	-4.3138465E-001	-4.3157133E-001	-3.506313889234600E-003	2.000000000000000E+000	-4.0618015E-005	1.5132246E-006
2	0	0	1	1	3.639895908048493E+002	-4.3472338E-001	-4.3491560E-001	-3.517859800626008E-003	2.000000000000000E+000	-4.0736588E-005	1.5299721E-006
2	0	0	0	1	3.640228908040081E+002	-4.3805772E-001	-4.3825343E-001	-3.529192931031586E-003	2.000000000000000E+000	-4.0855135E-005	1.5466809E-006
2	0	0	0	1	3.640561908031668E+002	-4.4138753E-001	-4.4159299E-001	-3.542720866799173E-003	2.000000000000000E+000	-4.0974111E-005	1.5644407E-006
2	0	0	1	1	3.640895908023231E+002	-4.4472626E-001	-4.4493130E-001	-3.558475830246211E-003	2.000000000000000E+000	-4.1093943E-005	1.5832773E-006
2	0	0	1	1	3.641227908014844E+002	-4.4804496E-001	-4.4822493E-001	-3.568214825516201E-003	2.000000000000000E+000	-4.1213432E-005	1.5993628E-006
2	0	0	0	1	3.641561908006406E+002	-4.5138371E-001	-4.5154998E-001	-3.582596768106602E-003	2.000000000000000E+000	-4.1334053E-005	1.6177215E-006
2	0	0	1	1	3.641894907997994E+002	-4.5471799E-001	-4.5489395E-001	-3.598490743535847E-003	2.000000000000000E+000	-4.1454819E-005	1.6369316E-006
2	0	0	1	1	3.642227907989582E+002	-4.5804781E-001	-4.5821968E-001	-3.612369697996949E-003	2.000000000000000E+000	-4.1576091E-005	1.6552589E-006
2	0	0	0	1	3.642561907981144E+002	-4.6138656E-001	-4.6158689E-001	-3.628680856221492E-003	2.000000000000000E+000	-4.1698248E-005	1.6749515E-006
2	0	0	0	1	3.642893907972757E+002	-4.6470535E-001	-4.6488091E-001	-3.646357866980691E-003	2.000000000000000E+000	-4.1820200E-005	1.6951221E-006
2	0	0	1	1	3.643227907964319E+002	-4.6804407E-001	-4.6824148E-001	-3.664700183133536E-003	2.000000000000000E+000	-4.1943538E-005	1.7159647E-006
2	0	0	0	1	3.643560907955907E+002	-4.7137612E-001	-4.7159880E-001	-3.681775974110860E-003	2.000000000000000E+000	-4.2067048E-005	1.7363211E-006
2	0	0	0	1	3.643893907947495E+002	-4.7470814E-001	-4.7490877E-001	-3.698542619111095E-003	2.000000000000000E+000	-4.2191168E-005	1.7564703E-006
2	0	0	1	1	3.644227907939057E+002	-4.7804686E-001	-4.7825909E-001	-3.719404877882443E-003	2.000000000000000E+000	-4.2316264E-005	1.7788392E-006
2	0	0	1	1	3.644559907930670E+002	-4.8136562E-001	-4.8157766E-001	-3.734591349558385E-003	2.000000000000000E+000	-4.2441232E-005	1.7984958E-006
2	0	0	0	1	3.644893907922233E+002	-4.8470435E-001	-4.8491323E-001	-3.752219037344694E-003	2.000000000000000E+000	-4.2567513E-005	1.8195007E-006
2	0	0	1	1	3.645226907913820E+002	-4.8803416E-001	-4.8824960E-001	-3.777567577076021E-003	2.000000000000000E+000	-4.2694122E-005	1.8443959E-006
2	0	0	1	1	3.645559907905408E+002	-4.9136850E-001	-4.9156469E-001	-3.795165917151649E-003	2.000000000000000E+000	-4.2821444E-005	1.8655695E-006
2	0	0	0	1	3.645893907896971E+002	-4.9470726E-001	-4.9488029E-001	-3.817288919321806E-003	2.000000000000000E+000	-4.2949818E-005	1.8891011E-006
2	0	0	0	1	3.646225907888584E+002	-4.9802598E-001	-4.9822482E-001	-3.843884228899014E-003	2.000000000000000E+000	-4.3078235E-005	1.9151184E-006
2	0	0	1	1	3.646559907880146E+002	-5.0136471E-001	-5.0157392E-001	-3.860665204265371E-003	2.000000000000000E+000	-4.3208169E-005	1.9364090E-006
2	0	0	0	1	3.646893907871709E+002	-5.0470340E-001	-5.0489444E-001	-3.886607262231537E-003	2.000000000000000E+000	-4.3338747E-005	1.9623265E-006
2	0	0	0	1	3.647225907863321E+002	-5.0802881E-001	-5.0825024E-001	-3.912769635628338E-003	2.000000000000000E+000	-4.3469423E-005	1.9886661E-006
2	0	0	1	1	3.647559907854884E+002	-5.1136756E-001	-5.1158655E-001	-3.938938553986172E-003	2.000000000000000E+000	-4.3601773E-005	2.0151081E-006
2	0	0	1	1	3.647891907846497E+002	-5.1468629E-001	-5.1490778E-001	-3.966848874638166E-003	2.000000000000000E+000	-4.3734231E-005	2.0425614E-006
2	0	0	0	1	3.648225907838059E+002	-5.1802498E-001	-5.1822215E-001	-3.995062340793614E-003	2.000000000000000E+000	-4.3868415E-005	2.0703299E-006
2	0	0	1	1	3.648559907829622E+002	-5.2136368E-001	-5.2156073E-001	-4.024699442099391E-003	2.000000000000000E+000	-4.4003562E-005	2.0991251E-006
2	0	0	1	1	3.648891907821235E+002	-5.2468693E-001	-5.2488804E-001	-4.057049646270801E-003	2.000000000000000E+000	-4.4138938E-005	2.1294968E-006
2	0	0	0	1	3.649225907812797E+002	-5.2802789E-001	-5.2824026E-001	-4.087785423956436E-003	2.000000000000000E+000	-4.4276174E-005	2.1593328E-006
2	0	0	0	1	3.649557907804410E+002	-5.3134656E-001	-5.3155291E-001	-4.119282979227125E-003	2.000000000000000E+000	-4.4413635E-005	2.1896169E-006
2	0	0	1	1	3.649891907795973E+002	-5.3468525E-001	-5.3486943E-001	-4.155275055764601E-003	2.000000000000000E+000	-4.4553031E-005	2.2225297E-006
2	0	0	0	1	3.650225907787535E+002	-5.3802401E-001	-5.3819996E-001	-4.192711148099507E-003	2.000000000000000E+000	-4.4693676E-005	2.2565171E-006
2	0	0	0	1	3.650557907779148E+002	-5.4134500E-001	-5.4154015E-001	-4.226052754869057E-003	2.000000000000000E+000	-4.4834676E-005	2.2885772E-006
2	0	0	1	1	3.650891907770711E+002	-5.4468811E-001	-5.4488611E-001	-4.267331287501966E-003	2.000000000000000E+000	-4.4977736E-005	2.3252096E-006
2	0	0	1	1	3.651223907762324E+002	-5.4800689E-001	-5.4819089E-001	-4.302052297678997E-003	2.000000000000000E+000	-4.5121236E-005	2.3583459E-006
2	0	0	0	1	3.651557907753886E+002	-5.5134559E-001	-5.5153537E-001	-4.346140050264569E-003	2.000000000000000E+000	-4.5266916E-005	2.3970499E-006
2	0	0	1	1	3.651891907745448E+002	-5.5468434E-001	-5.5490893E-001	-4.390972631986685E-003	2.000000000000000E+000	-4.5414083E-005	2.4365900E-006
2	0	0	1	1	3.652223907737061E+002	-5.5800527E-001	-5.5823356E-001	-4.438403056044100E-003	2.000000000000000E+000	-4.5561868E-005	2.4776655E-006
2	0	0	0	1	3.652557907728624E+002	-5.6134850E-001	-5.6154907E-001	-4.480553048137909E-003	2.000000000000000E+000	-4.5712077E-005	2.5160505E-006
2	0	0	0	1	3.652889907720237E+002	-5.6466717E-001	-5.6488103E-001	-4.530916902429594E-003	2.000000000000000E+000	-4.5862933E-005	2.5594290E-006
2	0	0	1	1	3.653223907711799E+002	-5.6800598E-001	-5.6822360E-001	-4.579024295736513E-003	2.000000000000000E+000	-4.6016361E-005	2.6019097E-006
2	0	0	0	1	3.653557907703362E+002	-5.7134461E-001	-5.7157099E-001	-4.634530679193422E-003	2.000000000000000E+000	-4.6171459E-005	2.6489633E-006
2	0	0	0	1	3.653889907694975E+002	-5.7466340E-001	-5.7488304E-001	-4.683986985026575E-003	2.000000000000000E+000	-4.6327412E-005	2.6927446E-006
2	0	0	1	1	3.654223907686537E+002	-5.7800877E-001	-5.7823390E-001	-4.741946546634637E-003	2.000000000000000E+000	-4.6486086E-005	2.7419542E-006
2	0	0	1	1	3.654555907678150E+002	-5.8132750E-001	-5.8152318E-001	-4.798690535826614E-003	2.000000000000000E+000	-4.6645720E-005	2.7905498E-006
2	0	0	0	1	3.654889907669713E+002	-5.8466625E-001	-5.8487034E-001	-4.865306226614213E-003	2.000000000000000E+000	-4.6808378E-005	2.8455734E-006
2	0	0	1	1	3.655223907661275E+002	-5.8800501E-001	-5.8822817E-001	-4.925779783570047E-003	2.000000000000000E+000	-4.6973131E-005	2.8974823E-006
2	0	0	1	1	3.655555907652888E+002	-5.9132373E-001	-5.9152466E-001	-4.988536518940226E-003	2.000000000000000E+000	-4.7138987E-005	2.9508424E-006
2	0	0	0	1	3.655889907644450E+002	-5.9466684E-001	-5.9486479E-001	-5.057108159051967E-003	2.000000000000000E+000	-4.7308044E-005	3.0082956E-006
2	0	0	0	1	3.656221907636063E+002	-5.9798789E-001	-5.9819317E-001	-5.120737661846883E-003	2.000000000000000E+000	-4.7478236E-005	3.0631902E-006
2	0	0	1	1	3.656405907631415E+002	-5.9982693E-001	-6.0004652E-001	-5.166230878482267E-003	2.000000000000000E+000	-4.7573307E-005	3.0999788E-006